0.000000000000,0.011921853962
0.000100000000,0.010645048971
0.000200000000,0.024689903865
0.000300000000,0.024689903865
0.000400000000,0.040011563748
0.000500000000,0.032350733806
0.000600000000,0.010645048971
0.000700000000,-0.008507025883
0.000800000000,0.020859488894
0.000900000000,0.001707414039
0.001000000000,0.010645048971
0.001100000000,0.027243513845
0.001200000000,0.005537829010
0.001300000000,0.025966708855
0.001400000000,0.014475463942
0.001500000000,0.027243513845
0.001600000000,0.009368243981
0.001700000000,-0.005953415902
0.001800000000,0.005537829010
0.001900000000,0.017029073923
0.002000000000,0.038734758758
0.002100000000,0.023413098874
0.002200000000,-0.000846195941
0.002300000000,0.020859488894
0.002400000000,0.005537829010
0.002500000000,0.010645048971
0.002600000000,-0.014891050835
0.002700000000,-0.004676610912
0.002800000000,-0.000846195941
0.002900000000,0.004261024020
0.003000000000,0.022136293884
0.003100000000,0.009368243981
0.003200000000,0.000430609049
0.003300000000,0.005537829010
0.003400000000,-0.013614245844
0.003500000000,-0.014891050835
0.003600000000,-0.014891050835
0.003700000000,-0.023828685767
0.003800000000,-0.019998270796
0.003900000000,-0.003399805922
0.004000000000,0.010645048971
0.004100000000,-0.013614245844
0.004200000000,-0.027659100737
0.004300000000,-0.018721465805
0.004400000000,-0.019998270796
0.004500000000,-0.013614245844
0.004600000000,-0.017444660815
0.004700000000,-0.027659100737
0.004800000000,-0.013614245844
0.004900000000,-0.017444660815
0.005000000000,-0.030212710718
0.005100000000,-0.026382295747
0.005200000000,-0.021275075786
0.005300000000,-0.025105490757
0.005400000000,-0.000846195941
0.005500000000,-0.007230220893
0.005600000000,-0.023828685767
0.005700000000,-0.042980760621
0.005800000000,-0.011060635864
0.005900000000,-0.017444660815
0.006000000000,-0.009783830873
0.006100000000,-0.005953415902
0.006200000000,-0.023828685767
0.006300000000,-0.018721465805
0.006400000000,-0.013614245844
0.006500000000,-0.008507025883
0.006600000000,0.004261024020
0.006700000000,0.004261024020
0.006800000000,0.008091438991
0.006900000000,-0.008507025883
0.007000000000,-0.007230220893
0.007100000000,-0.008507025883
0.007200000000,-0.018721465805
0.007300000000,0.015752268933
0.007400000000,-0.002123000932
0.007500000000,-0.013614245844
0.007600000000,-0.012337440854
0.007700000000,-0.016167855825
0.007800000000,-0.019998270796
0.007900000000,-0.023828685767
0.008000000000,-0.002123000932
0.008100000000,-0.004676610912
0.008200000000,-0.018721465805
0.008300000000,-0.000846195941
0.008400000000,0.005537829010
0.008500000000,-0.017444660815
0.008600000000,-0.011060635864
0.008700000000,-0.018721465805
0.008800000000,-0.017444660815
0.008900000000,0.004261024020
0.009000000000,-0.007230220893
0.009100000000,0.001707414039
0.009200000000,-0.003399805922
0.009300000000,0.009368243981
0.009400000000,-0.008507025883
0.009500000000,-0.004676610912
0.009600000000,-0.011060635864
0.009700000000,0.001707414039
0.009800000000,-0.036596735670
0.009900000000,-0.019998270796
0.010000000000,-0.014891050835
0.010100000000,-0.030212710718
0.010200000000,-0.008507025883
0.010300000000,-0.002123000932
0.010400000000,-0.000846195941
0.010500000000,-0.009783830873
0.010600000000,-0.017444660815
0.010700000000,-0.030212710718
0.010800000000,0.009368243981
0.010900000000,0.014475463942
0.011000000000,-0.004676610912
0.011100000000,0.001707414039
0.011200000000,-0.008507025883
0.011300000000,-0.023828685767
0.011400000000,0.006814634000
0.011500000000,-0.016167855825
0.011600000000,-0.011060635864
0.011700000000,0.009368243981
0.011800000000,0.005537829010
0.011900000000,-0.013614245844
0.012000000000,-0.003399805922
0.012100000000,0.005537829010
0.012200000000,0.029797123826
0.012300000000,0.027243513845
0.012400000000,0.032350733806
0.012500000000,0.019582683903
0.012600000000,0.011921853962
0.012700000000,0.005537829010
0.012800000000,0.009368243981
0.012900000000,0.023413098874
0.013000000000,0.019582683903
0.013100000000,0.032350733806
0.013200000000,0.009368243981
0.013300000000,0.022136293884
0.013400000000,0.022136293884
0.013500000000,0.009368243981
0.013600000000,0.015752268933
0.013700000000,0.024689903865
0.013800000000,0.010645048971
0.013900000000,0.020859488894
0.014000000000,0.013198658952
0.014100000000,0.010645048971
0.014200000000,0.017029073923
0.014300000000,0.029797123826
0.014400000000,0.001707414039
0.014500000000,0.017029073923
0.014600000000,0.014475463942
0.014700000000,0.000430609049
0.014800000000,0.009368243981
0.014900000000,0.025966708855
0.015000000000,0.034904343787
0.015100000000,0.020859488894
0.015200000000,0.019582683903
0.015300000000,0.011921853962
0.015400000000,0.015752268933
0.015500000000,0.002984219030
0.015600000000,0.013198658952
0.015700000000,0.006814634000
0.015800000000,-0.007230220893
0.015900000000,0.010645048971
0.016000000000,-0.004676610912
0.016100000000,0.017029073923
0.016200000000,0.000430609049
0.016300000000,-0.005953415902
0.016400000000,0.001707414039
0.016500000000,0.004261024020
0.016600000000,0.001707414039
0.016700000000,0.001707414039
0.016800000000,0.010645048971
0.016900000000,0.010645048971
0.017000000000,-0.000846195941
0.017100000000,0.001707414039
0.017200000000,0.009368243981
0.017300000000,-0.003399805922
0.017400000000,-0.011060635864
0.017500000000,0.017029073923
0.017600000000,0.010645048971
0.017700000000,0.001707414039
0.017800000000,0.013198658952
0.017900000000,-0.000846195941
0.018000000000,0.010645048971
0.018100000000,0.028520318836
0.018200000000,-0.004676610912
0.018300000000,0.017029073923
0.018400000000,0.034904343787
0.018500000000,0.014475463942
0.018600000000,0.013198658952
0.018700000000,-0.000846195941
0.018800000000,0.002984219030
0.018900000000,0.024689903865
0.019000000000,0.023413098874
0.019100000000,0.008091438991
0.019200000000,0.006814634000
0.019300000000,0.017029073923
0.019400000000,0.029797123826
0.019500000000,-0.011060635864
0.019600000000,0.017029073923
0.019700000000,0.009368243981
0.019800000000,0.008091438991
0.019900000000,0.009368243981
0.020000000000,0.001707414039
0.020100000000,0.010645048971
0.020200000000,-0.000846195941
0.020300000000,-0.008507025883
0.020400000000,0.000430609049
0.020500000000,0.020859488894
0.020600000000,0.015752268933
0.020700000000,-0.004676610912
0.020800000000,0.000430609049
0.020900000000,0.002984219030
0.021000000000,-0.009783830873
0.021100000000,0.005537829010
0.021200000000,0.017029073923
0.021300000000,-0.008507025883
0.021400000000,-0.008507025883
0.021500000000,-0.005953415902
0.021600000000,-0.017444660815
0.021700000000,-0.023828685767
0.021800000000,-0.007230220893
0.021900000000,-0.008507025883
0.022000000000,-0.031489515708
0.022100000000,-0.028935905728
0.022200000000,-0.018721465805
0.022300000000,-0.023828685767
0.022400000000,-0.018721465805
0.022500000000,-0.028935905728
0.022600000000,-0.030212710718
0.022700000000,-0.023828685767
0.022800000000,-0.028935905728
0.022900000000,-0.032766320699
0.023000000000,-0.034043125689
0.023100000000,-0.013614245844
0.023200000000,-0.031489515708
0.023300000000,-0.031489515708
0.023400000000,-0.007230220893
0.023500000000,-0.030212710718
0.023600000000,-0.030212710718
0.023700000000,-0.021275075786
0.023800000000,-0.022551880776
0.023900000000,-0.023828685767
0.024000000000,0.001707414039
0.024100000000,-0.007230220893
0.024200000000,-0.026382295747
0.024300000000,-0.013614245844
0.024400000000,-0.017444660815
0.024500000000,-0.003399805922
0.024600000000,-0.013614245844
0.024700000000,0.008091438991
0.024800000000,-0.005953415902
0.024900000000,-0.009783830873
0.025000000000,-0.012337440854
0.025100000000,-0.014891050835
0.025200000000,0.001707414039
0.025300000000,-0.013614245844
0.025400000000,0.019582683903
0.025500000000,-0.017444660815
0.025600000000,0.001707414039
0.025700000000,-0.000846195941
0.025800000000,-0.031489515708
0.025900000000,-0.016167855825
0.026000000000,-0.018721465805
0.026100000000,0.006814634000
0.026200000000,0.010645048971
0.026300000000,0.002984219030
0.026400000000,-0.019998270796
0.026500000000,0.005537829010
0.026600000000,-0.004676610912
0.026700000000,-0.009783830873
0.026800000000,-0.003399805922
0.026900000000,0.023413098874
0.027000000000,0.009368243981
0.027100000000,0.001707414039
0.027200000000,0.004261024020
0.027300000000,0.002984219030
0.027400000000,0.001707414039
0.027500000000,0.001707414039
0.027600000000,-0.004676610912
0.027700000000,-0.002123000932
0.027800000000,-0.000846195941
0.027900000000,-0.009783830873
0.028000000000,-0.011060635864
0.028100000000,0.009368243981
0.028200000000,-0.003399805922
0.028300000000,0.001707414039
0.028400000000,-0.003399805922
0.028500000000,-0.003399805922
0.028600000000,0.001707414039
0.028700000000,0.005537829010
0.028800000000,-0.008507025883
0.028900000000,-0.000846195941
0.029000000000,0.000430609049
0.029100000000,0.019582683903
0.029200000000,0.001707414039
0.029300000000,-0.008507025883
0.029400000000,0.011921853962
0.029500000000,0.001707414039
0.029600000000,0.001707414039
0.029700000000,0.010645048971
0.029800000000,0.015752268933
0.029900000000,0.032350733806
0.030000000000,0.024689903865
0.030100000000,0.006814634000
0.030200000000,0.029797123826
0.030300000000,0.024689903865
0.030400000000,0.020859488894
0.030500000000,0.011921853962
0.030600000000,0.034904343787
0.030700000000,0.032350733806
0.030800000000,0.031073928816
0.030900000000,0.046395588700
0.031000000000,0.023413098874
0.031100000000,0.037457953768
0.031200000000,0.020859488894
0.031300000000,0.022136293884
0.031400000000,0.009368243981
0.031500000000,0.019582683903
0.031600000000,0.025966708855
0.031700000000,0.019582683903
0.031800000000,-0.008507025883
0.031900000000,0.011921853962
0.032000000000,0.000430609049
0.032100000000,0.032350733806
0.032200000000,0.019582683903
0.032300000000,0.005537829010
0.032400000000,0.019582683903
0.032500000000,0.020859488894
0.032600000000,0.019582683903
0.032700000000,0.010645048971
0.032800000000,0.025966708855
0.032900000000,0.047672393690
0.033000000000,0.015752268933
0.033100000000,0.017029073923
0.033200000000,0.011921853962
0.033300000000,0.025966708855
0.033400000000,0.010645048971
0.033500000000,0.020859488894
0.033600000000,-0.009783830873
0.033700000000,0.002984219030
0.033800000000,0.004261024020
0.033900000000,-0.003399805922
0.034000000000,-0.017444660815
0.034100000000,0.020859488894
0.034200000000,0.010645048971
0.034300000000,-0.022551880776
0.034400000000,0.001707414039
0.034500000000,-0.013614245844
0.034600000000,0.019582683903
0.034700000000,0.006814634000
0.034800000000,-0.022551880776
0.034900000000,0.015752268933
0.035000000000,0.005537829010
0.035100000000,-0.013614245844
0.035200000000,-0.011060635864
0.035300000000,0.001707414039
0.035400000000,0.015752268933
0.035500000000,-0.000846195941
0.035600000000,0.023413098874
0.035700000000,0.010645048971
0.035800000000,0.027243513845
0.035900000000,0.017029073923
0.036000000000,-0.009783830873
0.036100000000,0.010645048971
0.036200000000,-0.000846195941
0.036300000000,0.019582683903
0.036400000000,-0.013614245844
0.036500000000,0.002984219030
0.036600000000,0.005537829010
0.036700000000,-0.003399805922
0.036800000000,-0.008507025883
0.036900000000,0.013198658952
0.037000000000,0.013198658952
0.037100000000,0.017029073923
0.037200000000,0.002984219030
0.037300000000,0.005537829010
0.037400000000,-0.013614245844
0.037500000000,-0.005953415902
0.037600000000,0.017029073923
0.037700000000,-0.002123000932
0.037800000000,-0.003399805922
0.037900000000,0.022136293884
0.038000000000,-0.000846195941
0.038100000000,0.001707414039
0.038200000000,-0.002123000932
0.038300000000,-0.008507025883
0.038400000000,-0.003399805922
0.038500000000,-0.007230220893
0.038600000000,-0.007230220893
0.038700000000,-0.000846195941
0.038800000000,-0.018721465805
0.038900000000,-0.018721465805
0.039000000000,-0.007230220893
0.039100000000,-0.007230220893
0.039200000000,-0.009783830873
0.039300000000,-0.016167855825
0.039400000000,-0.030212710718
0.039500000000,-0.037873540660
0.039600000000,-0.023828685767
0.039700000000,-0.030212710718
0.039800000000,-0.019998270796
0.039900000000,-0.018721465805
0.040000000000,-0.030212710718
0.040100000000,-0.032766320699
0.040200000000,-0.037873540660
0.040300000000,-0.030212710718
0.040400000000,-0.014891050835
0.040500000000,-0.019998270796
0.040600000000,-0.039150345650
0.040700000000,-0.021275075786
0.040800000000,-0.009783830873
0.040900000000,0.009368243981
0.041000000000,-0.016167855825
0.041100000000,-0.025105490757
0.041200000000,-0.031489515708
0.041300000000,-0.011060635864
0.041400000000,-0.032766320699
0.041500000000,-0.018721465805
0.041600000000,0.001707414039
0.041700000000,-0.002123000932
0.041800000000,-0.003399805922
0.041900000000,0.001707414039
0.042000000000,-0.002123000932
0.042100000000,-0.018721465805
0.042200000000,-0.002123000932
0.042300000000,0.001707414039
0.042400000000,-0.013614245844
0.042500000000,-0.008507025883
0.042600000000,0.018305878913
0.042700000000,0.011921853962
0.042800000000,-0.007230220893
0.042900000000,0.001707414039
0.043000000000,-0.003399805922
0.043100000000,0.005537829010
0.043200000000,-0.003399805922
0.043300000000,0.004261024020
0.043400000000,-0.014891050835
0.043500000000,0.004261024020
0.043600000000,0.004261024020
0.043700000000,-0.004676610912
0.043800000000,0.024689903865
0.043900000000,0.010645048971
0.044000000000,0.005537829010
0.044100000000,0.006814634000
0.044200000000,0.005537829010
0.044300000000,-0.004676610912
0.044400000000,0.005537829010
0.044500000000,0.013198658952
0.044600000000,0.004261024020
0.044700000000,0.017029073923
0.044800000000,0.015752268933
0.044900000000,0.009368243981
0.045000000000,0.024689903865
0.045100000000,0.017029073923
0.045200000000,0.017029073923
0.045300000000,-0.014891050835
0.045400000000,0.008091438991
0.045500000000,0.005537829010
0.045600000000,0.006814634000
0.045700000000,-0.003399805922
0.045800000000,-0.008507025883
0.045900000000,-0.008507025883
0.046000000000,-0.005953415902
0.046100000000,0.004261024020
0.046200000000,-0.014891050835
0.046300000000,0.017029073923
0.046400000000,0.015752268933
0.046500000000,0.010645048971
0.046600000000,0.009368243981
0.046700000000,0.011921853962
0.046800000000,-0.008507025883
0.046900000000,0.001707414039
0.047000000000,0.004261024020
0.047100000000,0.005537829010
0.047200000000,0.020859488894
0.047300000000,0.029797123826
0.047400000000,0.000430609049
0.047500000000,0.006814634000
0.047600000000,0.020859488894
0.047700000000,0.028520318836
0.047800000000,0.022136293884
0.047900000000,0.001707414039
0.048000000000,0.023413098874
0.048100000000,0.031073928816
0.048200000000,0.025966708855
0.048300000000,0.013198658952
0.048400000000,0.024689903865
0.048500000000,0.037457953768
0.048600000000,0.029797123826
0.048700000000,0.011921853962
0.048800000000,0.019582683903
0.048900000000,0.020859488894
0.049000000000,0.027243513845
0.049100000000,0.037457953768
0.049200000000,0.019582683903
0.049300000000,0.017029073923
0.049400000000,0.024689903865
0.049500000000,0.031073928816
0.049600000000,0.017029073923
0.049700000000,0.031073928816
0.049800000000,0.017029073923
0.049900000000,0.022136293884
0.050000000000,0.027243513845
0.050100000000,0.004261024020
0.050200000000,0.023413098874
0.050300000000,0.025966708855
0.050400000000,-0.004676610912
0.050500000000,-0.003399805922
0.050600000000,0.022136293884
0.050700000000,0.033627538797
0.050800000000,0.019582683903
0.050900000000,0.000430609049
0.051000000000,0.005537829010
0.051100000000,0.025966708855
0.051200000000,0.006814634000
0.051300000000,0.002984219030
0.051400000000,-0.000846195941
0.051500000000,0.011921853962
0.051600000000,0.024689903865
0.051700000000,0.004261024020
0.051800000000,0.009368243981
0.051900000000,0.005537829010
0.052000000000,0.011921853962
0.052100000000,-0.003399805922
0.052200000000,-0.008507025883
0.052300000000,0.018305878913
0.052400000000,-0.019998270796
0.052500000000,-0.011060635864
0.052600000000,-0.017444660815
0.052700000000,-0.008507025883
0.052800000000,0.002984219030
0.052900000000,-0.021275075786
0.053000000000,-0.008507025883
0.053100000000,-0.008507025883
0.053200000000,-0.000846195941
0.053300000000,0.005537829010
0.053400000000,-0.008507025883
0.053500000000,-0.008507025883
0.053600000000,-0.007230220893
0.053700000000,-0.017444660815
0.053800000000,-0.019998270796
0.053900000000,-0.008507025883
0.054000000000,-0.012337440854
0.054100000000,-0.003399805922
0.054200000000,-0.008507025883
0.054300000000,-0.002123000932
0.054400000000,-0.008507025883
0.054500000000,0.011921853962
0.054600000000,-0.012337440854
0.054700000000,0.001707414039
0.054800000000,0.023413098874
0.054900000000,0.001707414039
0.055000000000,-0.021275075786
0.055100000000,-0.018721465805
0.055200000000,-0.004676610912
0.055300000000,-0.000846195941
0.055400000000,-0.013614245844
0.055500000000,-0.012337440854
0.055600000000,0.002984219030
0.055700000000,-0.008507025883
0.055800000000,-0.016167855825
0.055900000000,-0.028935905728
0.056000000000,-0.012337440854
0.056100000000,0.006814634000
0.056200000000,-0.021275075786
0.056300000000,-0.000846195941
0.056400000000,-0.007230220893
0.056500000000,-0.008507025883
0.056600000000,-0.022551880776
0.056700000000,-0.021275075786
0.056800000000,-0.023828685767
0.056900000000,0.005537829010
0.057000000000,-0.023828685767
0.057100000000,-0.014891050835
0.057200000000,-0.017444660815
0.057300000000,-0.003399805922
0.057400000000,-0.014891050835
0.057500000000,0.001707414039
0.057600000000,-0.030212710718
0.057700000000,-0.008507025883
0.057800000000,-0.005953415902
0.057900000000,0.001707414039
0.058000000000,-0.017444660815
0.058100000000,-0.031489515708
0.058200000000,-0.021275075786
0.058300000000,0.011921853962
0.058400000000,-0.023828685767
0.058500000000,-0.011060635864
0.058600000000,-0.013614245844
0.058700000000,-0.030212710718
0.058800000000,-0.013614245844
0.058900000000,-0.021275075786
0.059000000000,-0.008507025883
0.059100000000,-0.013614245844
0.059200000000,-0.016167855825
0.059300000000,-0.002123000932
0.059400000000,-0.003399805922
0.059500000000,-0.012337440854
0.059600000000,-0.017444660815
0.059700000000,-0.023828685767
0.059800000000,-0.005953415902
0.059900000000,-0.003399805922
0.060000000000,-0.025105490757
0.060100000000,-0.018721465805
0.060200000000,-0.005953415902
0.060300000000,0.017029073923
0.060400000000,0.010645048971
0.060500000000,-0.008507025883
0.060600000000,-0.000846195941
0.060700000000,0.023413098874
0.060800000000,0.029797123826
0.060900000000,0.005537829010
0.061000000000,0.023413098874
0.061100000000,0.033627538797
0.061200000000,0.015752268933
0.061300000000,0.027243513845
0.061400000000,0.009368243981
0.061500000000,0.032350733806
0.061600000000,0.001707414039
0.061700000000,0.002984219030
0.061800000000,0.005537829010
0.061900000000,0.024689903865
0.062000000000,0.019582683903
0.062100000000,0.022136293884
0.062200000000,0.010645048971
0.062300000000,0.029797123826
0.062400000000,0.019582683903
0.062500000000,0.022136293884
0.062600000000,0.001707414039
0.062700000000,0.002984219030
0.062800000000,0.023413098874
0.062900000000,0.033627538797
0.063000000000,0.015752268933
0.063100000000,0.013198658952
0.063200000000,0.019582683903
0.063300000000,0.011921853962
0.063400000000,0.023413098874
0.063500000000,0.023413098874
0.063600000000,0.019582683903
0.063700000000,0.011921853962
0.063800000000,0.032350733806
0.063900000000,0.027243513845
0.064000000000,0.027243513845
0.064100000000,0.013198658952
0.064200000000,0.017029073923
0.064300000000,0.011921853962
0.064400000000,0.011921853962
0.064500000000,0.029797123826
0.064600000000,-0.008507025883
0.064700000000,0.001707414039
0.064800000000,0.001707414039
0.064900000000,0.020859488894
0.065000000000,0.022136293884
0.065100000000,0.008091438991
0.065200000000,0.004261024020
0.065300000000,0.005537829010
0.065400000000,0.010645048971
0.065500000000,0.011921853962
0.065600000000,-0.002123000932
0.065700000000,0.019582683903
0.065800000000,0.027243513845
0.065900000000,0.013198658952
0.066000000000,0.006814634000
0.066100000000,-0.008507025883
0.066200000000,-0.005953415902
0.066300000000,0.031073928816
0.066400000000,0.014475463942
0.066500000000,0.006814634000
0.066600000000,0.017029073923
0.066700000000,0.011921853962
0.066800000000,-0.013614245844
0.066900000000,0.009368243981
0.067000000000,0.015752268933
0.067100000000,0.017029073923
0.067200000000,-0.003399805922
0.067300000000,0.018305878913
0.067400000000,0.022136293884
0.067500000000,0.006814634000
0.067600000000,0.020859488894
0.067700000000,0.015752268933
0.067800000000,-0.000846195941
0.067900000000,0.051502808661
0.068000000000,0.017029073923
0.068100000000,0.028520318836
0.068200000000,-0.000846195941
0.068300000000,0.022136293884
0.068400000000,0.019582683903
0.068500000000,0.006814634000
0.068600000000,0.022136293884
0.068700000000,-0.005953415902
0.068800000000,-0.004676610912
0.068900000000,0.025966708855
0.069000000000,-0.000846195941
0.069100000000,0.009368243981
0.069200000000,-0.008507025883
0.069300000000,-0.008507025883
0.069400000000,0.008091438991
0.069500000000,0.019582683903
0.069600000000,0.009368243981
0.069700000000,-0.003399805922
0.069800000000,0.000430609049
0.069900000000,0.001707414039
0.070000000000,0.005537829010
0.070100000000,0.006814634000
0.070200000000,-0.012337440854
0.070300000000,-0.003399805922
0.070400000000,0.032350733806
0.070500000000,0.022136293884
0.070600000000,0.001707414039
0.070700000000,0.005537829010
0.070800000000,-0.012337440854
0.070900000000,0.001707414039
0.071000000000,-0.017444660815
0.071100000000,-0.016167855825
0.071200000000,-0.030212710718
0.071300000000,-0.017444660815
0.071400000000,-0.008507025883
0.071500000000,-0.026382295747
0.071600000000,-0.032766320699
0.071700000000,-0.027659100737
0.071800000000,-0.013614245844
0.071900000000,-0.013614245844
0.072000000000,-0.017444660815
0.072100000000,-0.016167855825
0.072200000000,-0.017444660815
0.072300000000,-0.034043125689
0.072400000000,-0.019998270796
0.072500000000,-0.040427150640
0.072600000000,0.001707414039
0.072700000000,-0.014891050835
0.072800000000,-0.030212710718
0.072900000000,-0.019998270796
0.073000000000,-0.016167855825
0.073100000000,-0.027659100737
0.073200000000,-0.032766320699
0.073300000000,-0.014891050835
0.073400000000,-0.008507025883
0.073500000000,-0.030212710718
0.073600000000,-0.002123000932
0.073700000000,-0.017444660815
0.073800000000,-0.014891050835
0.073900000000,0.011921853962
0.074000000000,-0.009783830873
0.074100000000,0.005537829010
0.074200000000,-0.023828685767
0.074300000000,-0.003399805922
0.074400000000,0.005537829010
0.074500000000,0.005537829010
0.074600000000,-0.008507025883
0.074700000000,-0.019998270796
0.074800000000,-0.013614245844
0.074900000000,-0.003399805922
0.075000000000,-0.002123000932
0.075100000000,0.011921853962
0.075200000000,0.006814634000
0.075300000000,-0.017444660815
0.075400000000,-0.016167855825
0.075500000000,-0.013614245844
0.075600000000,-0.021275075786
0.075700000000,-0.019998270796
0.075800000000,-0.008507025883
0.075900000000,0.015752268933
0.076000000000,-0.007230220893
0.076100000000,-0.007230220893
0.076200000000,-0.004676610912
0.076300000000,-0.018721465805
0.076400000000,0.006814634000
0.076500000000,0.017029073923
0.076600000000,0.005537829010
0.076700000000,0.009368243981
0.076800000000,0.020859488894
0.076900000000,0.002984219030
0.077000000000,0.001707414039
0.077100000000,-0.013614245844
0.077200000000,-0.011060635864
0.077300000000,0.000430609049
0.077400000000,-0.009783830873
0.077500000000,-0.000846195941
0.077600000000,0.009368243981
0.077700000000,-0.004676610912
0.077800000000,-0.013614245844
0.077900000000,-0.019998270796
0.078000000000,0.004261024020
0.078100000000,0.015752268933
0.078200000000,-0.000846195941
0.078300000000,-0.023828685767
0.078400000000,-0.018721465805
0.078500000000,0.009368243981
0.078600000000,0.023413098874
0.078700000000,0.014475463942
0.078800000000,0.001707414039
0.078900000000,0.011921853962
0.079000000000,0.017029073923
0.079100000000,-0.014891050835
0.079200000000,-0.003399805922
0.079300000000,0.004261024020
0.079400000000,0.006814634000
0.079500000000,0.025966708855
0.079600000000,0.013198658952
0.079700000000,0.019582683903
0.079800000000,0.010645048971
0.079900000000,0.025966708855
0.080000000000,0.020859488894
0.080100000000,0.025966708855
0.080200000000,0.013198658952
0.080300000000,0.013198658952
0.080400000000,0.036181148777
0.080500000000,0.019582683903
0.080600000000,0.025966708855
0.080700000000,0.029797123826
0.080800000000,0.031073928816
0.080900000000,0.023413098874
0.081000000000,0.010645048971
0.081100000000,0.017029073923
0.081200000000,0.036181148777
0.081300000000,0.010645048971
0.081400000000,0.025966708855
0.081500000000,0.017029073923
0.081600000000,0.036181148777
0.081700000000,0.025966708855
0.081800000000,0.020859488894
0.081900000000,0.011921853962
0.082000000000,0.008091438991
0.082100000000,0.014475463942
0.082200000000,0.011921853962
0.082300000000,0.023413098874
0.082400000000,0.001707414039
0.082500000000,0.038734758758
0.082600000000,0.014475463942
0.082700000000,0.023413098874
0.082800000000,0.022136293884
0.082900000000,0.028520318836
0.083000000000,0.027243513845
0.083100000000,0.025966708855
0.083200000000,0.028520318836
0.083300000000,0.001707414039
0.083400000000,0.010645048971
0.083500000000,0.005537829010
0.083600000000,0.009368243981
0.083700000000,0.005537829010
0.083800000000,-0.009783830873
0.083900000000,0.005537829010
0.084000000000,-0.009783830873
0.084100000000,-0.016167855825
0.084200000000,0.000430609049
0.084300000000,-0.000846195941
0.084400000000,0.000430609049
0.084500000000,0.001707414039
0.084600000000,0.011921853962
0.084700000000,0.020859488894
0.084800000000,-0.028935905728
0.084900000000,0.000430609049
0.085000000000,0.010645048971
0.085100000000,-0.004676610912
0.085200000000,0.013198658952
0.085300000000,-0.017444660815
0.085400000000,-0.023828685767
0.085500000000,-0.018721465805
0.085600000000,0.001707414039
0.085700000000,0.001707414039
0.085800000000,-0.004676610912
0.085900000000,0.011921853962
0.086000000000,-0.014891050835
0.086100000000,-0.002123000932
0.086200000000,0.005537829010
0.086300000000,-0.002123000932
0.086400000000,0.020859488894
0.086500000000,-0.003399805922
0.086600000000,0.002984219030
0.086700000000,0.019582683903
0.086800000000,0.011921853962
0.086900000000,0.013198658952
0.087000000000,0.010645048971
0.087100000000,-0.000846195941
0.087200000000,0.005537829010
0.087300000000,-0.011060635864
0.087400000000,0.006814634000
0.087500000000,-0.004676610912
0.087600000000,0.001707414039
0.087700000000,0.005537829010
0.087800000000,-0.002123000932
0.087900000000,-0.007230220893
0.088000000000,-0.000846195941
0.088100000000,-0.003399805922
0.088200000000,0.001707414039
0.088300000000,-0.003399805922
0.088400000000,-0.014891050835
0.088500000000,-0.009783830873
0.088600000000,-0.005953415902
0.088700000000,0.006814634000
0.088800000000,-0.011060635864
0.088900000000,-0.012337440854
0.089000000000,0.006814634000
0.089100000000,-0.022551880776
0.089200000000,-0.025105490757
0.089300000000,-0.018721465805
0.089400000000,-0.027659100737
0.089500000000,-0.028935905728
0.089600000000,-0.003399805922
0.089700000000,-0.009783830873
0.089800000000,-0.026382295747
0.089900000000,-0.031489515708
0.090000000000,-0.023828685767
0.090100000000,-0.031489515708
0.090200000000,-0.007230220893
0.090300000000,-0.003399805922
0.090400000000,-0.023828685767
0.090500000000,-0.023828685767
0.090600000000,-0.021275075786
0.090700000000,-0.014891050835
0.090800000000,-0.013614245844
0.090900000000,-0.018721465805
0.091000000000,-0.034043125689
0.091100000000,-0.018721465805
0.091200000000,-0.004676610912
0.091300000000,-0.018721465805
0.091400000000,-0.045534370602
0.091500000000,-0.004676610912
0.091600000000,0.002984219030
0.091700000000,-0.026382295747
0.091800000000,-0.035319930679
0.091900000000,-0.023828685767
0.092000000000,-0.021275075786
0.092100000000,-0.030212710718
0.092200000000,-0.000846195941
0.092300000000,-0.013614245844
0.092400000000,-0.009783830873
0.092500000000,-0.004676610912
0.092600000000,0.025966708855
0.092700000000,0.015752268933
0.092800000000,-0.000846195941
0.092900000000,-0.007230220893
0.093000000000,-0.014891050835
0.093100000000,0.006814634000
0.093200000000,-0.019998270796
0.093300000000,0.006814634000
0.093400000000,-0.011060635864
0.093500000000,0.001707414039
0.093600000000,0.020859488894
0.093700000000,0.005537829010
0.093800000000,0.006814634000
0.093900000000,0.005537829010
0.094000000000,0.000430609049
0.094100000000,0.005537829010
0.094200000000,0.008091438991
0.094300000000,0.002984219030
0.094400000000,-0.003399805922
0.094500000000,0.006814634000
0.094600000000,-0.000846195941
0.094700000000,0.015752268933
0.094800000000,-0.012337440854
0.094900000000,0.011921853962
0.095000000000,0.013198658952
0.095100000000,0.006814634000
0.095200000000,0.029797123826
0.095300000000,0.014475463942
0.095400000000,0.011921853962
0.095500000000,0.013198658952
0.095600000000,0.025966708855
0.095700000000,0.024689903865
0.095800000000,0.010645048971
0.095900000000,0.011921853962
0.096000000000,-0.004676610912
0.096100000000,0.002984219030
0.096200000000,0.015752268933
0.096300000000,0.025966708855
0.096400000000,-0.013614245844
0.096500000000,0.006814634000
0.096600000000,0.009368243981
0.096700000000,0.020859488894
0.096800000000,0.014475463942
0.096900000000,0.002984219030
0.097000000000,0.001707414039
0.097100000000,0.008091438991
0.097200000000,0.011921853962
0.097300000000,0.005537829010
0.097400000000,0.015752268933
0.097500000000,0.001707414039
0.097600000000,-0.002123000932
0.097700000000,0.011921853962
0.097800000000,0.019582683903
0.097900000000,0.001707414039
0.098000000000,-0.009783830873
0.098100000000,-0.000846195941
0.098200000000,0.014475463942
0.098300000000,0.023413098874
0.098400000000,0.009368243981
0.098500000000,0.002984219030
0.098600000000,0.011921853962
0.098700000000,0.023413098874
0.098800000000,0.046395588700
0.098900000000,0.017029073923
0.099000000000,0.020859488894
0.099100000000,0.019582683903
0.099200000000,0.032350733806
0.099300000000,0.051502808661
0.099400000000,0.027243513845
0.099500000000,0.033627538797
0.099600000000,0.023413098874
0.099700000000,0.031073928816
0.099800000000,0.025966708855
0.099900000000,0.027243513845
0.100000000000,0.037457953768
0.100100000000,0.008091438991
0.100200000000,0.031073928816
0.100300000000,0.017029073923
0.100400000000,0.043841978719
0.100500000000,0.015752268933
0.100600000000,0.024689903865
0.100700000000,0.028520318836
0.100800000000,0.020859488894
0.100900000000,0.020859488894
0.101000000000,-0.000846195941
0.101100000000,0.004261024020
0.101200000000,0.006814634000
0.101300000000,-0.000846195941
0.101400000000,0.010645048971
0.101500000000,0.002984219030
0.101600000000,0.010645048971
0.101700000000,-0.004676610912
0.101800000000,0.018305878913
0.101900000000,0.022136293884
0.102000000000,0.006814634000
0.102100000000,0.006814634000
0.102200000000,-0.013614245844
0.102300000000,0.019582683903
0.102400000000,0.008091438991
0.102500000000,-0.000846195941
0.102600000000,0.001707414039
0.102700000000,-0.017444660815
0.102800000000,-0.000846195941
0.102900000000,-0.003399805922
0.103000000000,-0.008507025883
0.103100000000,-0.023828685767
0.103200000000,0.001707414039
0.103300000000,-0.014891050835
0.103400000000,0.004261024020
0.103500000000,0.001707414039
0.103600000000,0.001707414039
0.103700000000,-0.002123000932
0.103800000000,-0.003399805922
0.103900000000,-0.000846195941
0.104000000000,-0.018721465805
0.104100000000,-0.023828685767
0.104200000000,-0.019998270796
0.104300000000,-0.004676610912
0.104400000000,0.015752268933
0.104500000000,-0.008507025883
0.104600000000,0.001707414039
0.104700000000,-0.004676610912
0.104800000000,-0.014891050835
0.104900000000,-0.007230220893
0.105000000000,-0.004676610912
0.105100000000,-0.013614245844
0.105200000000,-0.004676610912
0.105300000000,-0.002123000932
0.105400000000,0.000430609049
0.105500000000,0.004261024020
0.105600000000,-0.000846195941
0.105700000000,-0.017444660815
0.105800000000,-0.017444660815
0.105900000000,-0.011060635864
0.106000000000,-0.012337440854
0.106100000000,0.001707414039
0.106200000000,-0.021275075786
0.106300000000,-0.007230220893
0.106400000000,0.006814634000
0.106500000000,-0.008507025883
0.106600000000,-0.018721465805
0.106700000000,-0.009783830873
0.106800000000,-0.011060635864
0.106900000000,0.002984219030
0.107000000000,-0.016167855825
0.107100000000,-0.018721465805
0.107200000000,-0.028935905728
0.107300000000,-0.018721465805
0.107400000000,-0.008507025883
0.107500000000,-0.004676610912
0.107600000000,-0.034043125689
0.107700000000,-0.014891050835
0.107800000000,-0.018721465805
0.107900000000,-0.008507025883
0.108000000000,-0.016167855825
0.108100000000,0.009368243981
0.108200000000,-0.008507025883
0.108300000000,-0.012337440854
0.108400000000,0.001707414039
0.108500000000,-0.013614245844
0.108600000000,-0.011060635864
0.108700000000,-0.014891050835
0.108800000000,0.006814634000
0.108900000000,-0.027659100737
0.109000000000,-0.013614245844
0.109100000000,-0.012337440854
0.109200000000,-0.040427150640
0.109300000000,-0.008507025883
0.109400000000,-0.004676610912
0.109500000000,-0.018721465805
0.109600000000,-0.018721465805
0.109700000000,-0.027659100737
0.109800000000,0.005537829010
0.109900000000,-0.018721465805
0.110000000000,-0.013614245844
0.110100000000,-0.039150345650
0.110200000000,-0.012337440854
0.110300000000,0.005537829010
0.110400000000,0.001707414039
0.110500000000,0.002984219030
0.110600000000,-0.005953415902
0.110700000000,0.005537829010
0.110800000000,-0.007230220893
0.110900000000,-0.003399805922
0.111000000000,0.010645048971
0.111100000000,0.009368243981
0.111200000000,0.013198658952
0.111300000000,0.013198658952
0.111400000000,0.004261024020
0.111500000000,0.001707414039
0.111600000000,0.017029073923
0.111700000000,0.014475463942
0.111800000000,0.018305878913
0.111900000000,0.031073928816
0.112000000000,0.008091438991
0.112100000000,0.008091438991
0.112200000000,0.011921853962
0.112300000000,0.014475463942
0.112400000000,0.032350733806
0.112500000000,0.025966708855
0.112600000000,0.001707414039
0.112700000000,0.017029073923
0.112800000000,0.013198658952
0.112900000000,0.023413098874
0.113000000000,0.005537829010
0.113100000000,-0.002123000932
0.113200000000,0.025966708855
0.113300000000,0.017029073923
0.113400000000,0.019582683903
0.113500000000,0.042565173729
0.113600000000,0.011921853962
0.113700000000,0.027243513845
0.113800000000,0.017029073923
0.113900000000,0.024689903865
0.114000000000,0.022136293884
0.114100000000,0.001707414039
0.114200000000,0.015752268933
0.114300000000,0.022136293884
0.114400000000,0.025966708855
0.114500000000,0.027243513845
0.114600000000,0.032350733806
0.114700000000,0.013198658952
0.114800000000,0.005537829010
0.114900000000,0.022136293884
0.115000000000,-0.003399805922
0.115100000000,0.004261024020
0.115200000000,-0.008507025883
0.115300000000,-0.014891050835
0.115400000000,0.031073928816
0.115500000000,0.017029073923
0.115600000000,0.020859488894
0.115700000000,0.010645048971
0.115800000000,-0.003399805922
0.115900000000,0.005537829010
0.116000000000,0.019582683903
0.116100000000,-0.000846195941
0.116200000000,-0.005953415902
0.116300000000,-0.000846195941
0.116400000000,0.014475463942
0.116500000000,0.025966708855
0.116600000000,0.006814634000
0.116700000000,0.015752268933
0.116800000000,-0.002123000932
0.116900000000,0.036181148777
0.117000000000,0.013198658952
0.117100000000,-0.007230220893
0.117200000000,0.001707414039
0.117300000000,0.014475463942
0.117400000000,-0.003399805922
0.117500000000,0.024689903865
0.117600000000,0.005537829010
0.117700000000,0.022136293884
0.117800000000,0.013198658952
0.117900000000,0.013198658952
0.118000000000,0.013198658952
0.118100000000,0.020859488894
0.118200000000,0.006814634000
0.118300000000,0.005537829010
0.118400000000,0.023413098874
0.118500000000,0.031073928816
0.118600000000,0.001707414039
0.118700000000,0.005537829010
0.118800000000,0.017029073923
0.118900000000,0.008091438991
0.119000000000,0.015752268933
0.119100000000,-0.004676610912
0.119200000000,0.001707414039
0.119300000000,-0.004676610912
0.119400000000,0.006814634000
0.119500000000,0.006814634000
0.119600000000,0.020859488894
0.119700000000,-0.000846195941
0.119800000000,-0.000846195941
0.119900000000,-0.003399805922
0.120000000000,0.009368243981
0.120100000000,0.005537829010
0.120200000000,0.006814634000
0.120300000000,0.005537829010
0.120400000000,0.002984219030
0.120500000000,0.018305878913
0.120600000000,0.009368243981
0.120700000000,0.013198658952
0.120800000000,-0.014891050835
0.120900000000,-0.011060635864
0.121000000000,0.009368243981
0.121100000000,-0.013614245844
0.121200000000,-0.018721465805
0.121300000000,-0.018721465805
0.121400000000,-0.018721465805
0.121500000000,-0.022551880776
0.121600000000,-0.014891050835
0.121700000000,-0.023828685767
0.121800000000,-0.030212710718
0.121900000000,-0.012337440854
0.122000000000,-0.018721465805
0.122100000000,-0.013614245844
0.122200000000,-0.016167855825
0.122300000000,-0.030212710718
0.122400000000,-0.025105490757
0.122500000000,-0.011060635864
0.122600000000,-0.027659100737
0.122700000000,-0.022551880776
0.122800000000,-0.023828685767
0.122900000000,-0.018721465805
0.123000000000,-0.021275075786
0.123100000000,-0.023828685767
0.123200000000,-0.017444660815
0.123300000000,-0.021275075786
0.123400000000,-0.027659100737
0.123500000000,-0.011060635864
0.123600000000,-0.021275075786
0.123700000000,0.006814634000
0.123800000000,-0.014891050835
0.123900000000,-0.008507025883
0.124000000000,-0.013614245844
0.124100000000,0.011921853962
0.124200000000,-0.000846195941
0.124300000000,-0.003399805922
0.124400000000,-0.018721465805
0.124500000000,0.005537829010
0.124600000000,-0.018721465805
0.124700000000,-0.003399805922
0.124800000000,0.000430609049
0.124900000000,-0.004676610912
0.125000000000,0.001707414039
0.125100000000,-0.008507025883
0.125200000000,-0.000846195941
0.125300000000,-0.009783830873
0.125400000000,-0.007230220893
0.125500000000,-0.007230220893
0.125600000000,0.001707414039
0.125700000000,0.006814634000
0.125800000000,-0.011060635864
0.125900000000,-0.009783830873
0.126000000000,0.002984219030
0.126100000000,-0.012337440854
0.126200000000,0.001707414039
0.126300000000,0.004261024020
0.126400000000,-0.012337440854
0.126500000000,-0.005953415902
0.126600000000,0.009368243981
0.126700000000,-0.021275075786
0.126800000000,0.027243513845
0.126900000000,0.011921853962
0.127000000000,0.010645048971
0.127100000000,0.010645048971
0.127200000000,-0.014891050835
0.127300000000,-0.023828685767
0.127400000000,-0.014891050835
0.127500000000,0.009368243981
0.127600000000,0.001707414039
0.127700000000,0.000430609049
0.127800000000,0.001707414039
0.127900000000,-0.004676610912
0.128000000000,-0.013614245844
0.128100000000,-0.014891050835
0.128200000000,0.018305878913
0.128300000000,-0.013614245844
0.128400000000,-0.011060635864
0.128500000000,-0.007230220893
0.128600000000,0.001707414039
0.128700000000,-0.003399805922
0.128800000000,0.011921853962
0.128900000000,-0.023828685767
0.129000000000,0.005537829010
0.129100000000,0.005537829010
0.129200000000,0.005537829010
0.129300000000,0.015752268933
0.129400000000,-0.003399805922
0.129500000000,0.020859488894
0.129600000000,0.020859488894
0.129700000000,0.031073928816
0.129800000000,0.009368243981
0.129900000000,0.001707414039
0.130000000000,0.025966708855
0.130100000000,0.025966708855
0.130200000000,0.010645048971
0.130300000000,0.015752268933
0.130400000000,0.022136293884
0.130500000000,0.029797123826
0.130600000000,0.032350733806
0.130700000000,0.018305878913
0.130800000000,0.031073928816
0.130900000000,0.011921853962
0.131000000000,0.023413098874
0.131100000000,0.024689903865
0.131200000000,0.019582683903
0.131300000000,0.014475463942
0.131400000000,0.019582683903
0.131500000000,0.004261024020
0.131600000000,0.032350733806
0.131700000000,0.032350733806
0.131800000000,0.020859488894
0.131900000000,0.009368243981
0.132000000000,-0.007230220893
0.132100000000,0.027243513845
0.132200000000,0.010645048971
0.132300000000,0.032350733806
0.132400000000,0.020859488894
0.132500000000,0.022136293884
0.132600000000,0.019582683903
0.132700000000,0.010645048971
0.132800000000,0.010645048971
0.132900000000,0.025966708855
0.133000000000,0.033627538797
0.133100000000,0.025966708855
0.133200000000,0.011921853962
0.133300000000,-0.000846195941
0.133400000000,0.005537829010
0.133500000000,0.009368243981
0.133600000000,0.005537829010
0.133700000000,-0.009783830873
0.133800000000,0.005537829010
0.133900000000,0.005537829010
0.134000000000,-0.022551880776
0.134100000000,0.005537829010
0.134200000000,0.009368243981
0.134300000000,0.008091438991
0.134400000000,-0.005953415902
0.134500000000,-0.002123000932
0.134600000000,-0.003399805922
0.134700000000,-0.005953415902
0.134800000000,-0.007230220893
0.134900000000,0.010645048971
0.135000000000,0.005537829010
0.135100000000,-0.009783830873
0.135200000000,-0.014891050835
0.135300000000,0.000430609049
0.135400000000,-0.011060635864
0.135500000000,-0.003399805922
0.135600000000,0.019582683903
0.135700000000,0.029797123826
0.135800000000,0.000430609049
0.135900000000,-0.018721465805
0.136000000000,0.022136293884
0.136100000000,0.015752268933
0.136200000000,0.009368243981
0.136300000000,0.011921853962
0.136400000000,0.013198658952
0.136500000000,0.009368243981
0.136600000000,0.005537829010
0.136700000000,0.005537829010
0.136800000000,-0.003399805922
0.136900000000,0.025966708855
0.137000000000,0.029797123826
0.137100000000,0.018305878913
0.137200000000,0.001707414039
0.137300000000,-0.011060635864
0.137400000000,-0.007230220893
0.137500000000,0.002984219030
0.137600000000,0.008091438991
0.137700000000,0.001707414039
0.137800000000,-0.007230220893
0.137900000000,0.019582683903
0.138000000000,-0.004676610912
0.138100000000,-0.005953415902
0.138200000000,-0.013614245844
0.138300000000,-0.017444660815
0.138400000000,-0.014891050835
0.138500000000,-0.008507025883
0.138600000000,-0.008507025883
0.138700000000,-0.003399805922
0.138800000000,-0.013614245844
0.138900000000,-0.017444660815
0.139000000000,-0.017444660815
0.139100000000,-0.017444660815
0.139200000000,-0.008507025883
0.139300000000,-0.018721465805
0.139400000000,-0.031489515708
0.139500000000,-0.025105490757
0.139600000000,-0.018721465805
0.139700000000,-0.011060635864
0.139800000000,-0.028935905728
0.139900000000,-0.044257565611
0.140000000000,-0.003399805922
0.140100000000,-0.039150345650
0.140200000000,-0.023828685767
0.140300000000,-0.018721465805
0.140400000000,-0.021275075786
0.140500000000,-0.023828685767
0.140600000000,-0.014891050835
0.140700000000,-0.011060635864
0.140800000000,-0.022551880776
0.140900000000,-0.023828685767
0.141000000000,-0.031489515708
0.141100000000,-0.023828685767
0.141200000000,-0.016167855825
0.141300000000,-0.018721465805
0.141400000000,-0.014891050835
0.141500000000,-0.018721465805
0.141600000000,-0.018721465805
0.141700000000,-0.009783830873
0.141800000000,-0.008507025883
0.141900000000,-0.017444660815
0.142000000000,-0.021275075786
0.142100000000,-0.031489515708
0.142200000000,0.005537829010
0.142300000000,0.009368243981
0.142400000000,0.006814634000
0.142500000000,-0.008507025883
0.142600000000,0.001707414039
0.142700000000,0.009368243981
0.142800000000,-0.009783830873
0.142900000000,0.005537829010
0.143000000000,0.006814634000
0.143100000000,0.005537829010
0.143200000000,0.009368243981
0.143300000000,-0.013614245844
0.143400000000,0.006814634000
0.143500000000,0.000430609049
0.143600000000,0.005537829010
0.143700000000,-0.004676610912
0.143800000000,-0.011060635864
0.143900000000,0.006814634000
0.144000000000,-0.011060635864
0.144100000000,-0.003399805922
0.144200000000,0.010645048971
0.144300000000,0.009368243981
0.144400000000,0.002984219030
0.144500000000,0.019582683903
0.144600000000,-0.011060635864
0.144700000000,-0.003399805922
0.144800000000,0.001707414039
0.144900000000,0.002984219030
0.145000000000,-0.003399805922
0.145100000000,-0.003399805922
0.145200000000,0.006814634000
0.145300000000,0.005537829010
0.145400000000,0.008091438991
0.145500000000,-0.003399805922
0.145600000000,-0.000846195941
0.145700000000,0.001707414039
0.145800000000,0.013198658952
0.145900000000,-0.009783830873
0.146000000000,0.000430609049
0.146100000000,-0.003399805922
0.146200000000,-0.002123000932
0.146300000000,0.001707414039
0.146400000000,0.010645048971
0.146500000000,0.009368243981
0.146600000000,0.006814634000
0.146700000000,0.008091438991
0.146800000000,-0.003399805922
0.146900000000,0.005537829010
0.147000000000,0.011921853962
0.147100000000,0.001707414039
0.147200000000,0.015752268933
0.147300000000,0.024689903865
0.147400000000,0.019582683903
0.147500000000,0.006814634000
0.147600000000,0.017029073923
0.147700000000,-0.004676610912
0.147800000000,0.025966708855
0.147900000000,0.015752268933
0.148000000000,0.010645048971
0.148100000000,0.017029073923
0.148200000000,0.019582683903
0.148300000000,0.028520318836
0.148400000000,0.041288368738
0.148500000000,0.019582683903
0.148600000000,0.032350733806
0.148700000000,0.001707414039
0.148800000000,0.028520318836
0.148900000000,0.011921853962
0.149000000000,0.013198658952
0.149100000000,0.009368243981
0.149200000000,0.022136293884
0.149300000000,0.017029073923
0.149400000000,0.036181148777
0.149500000000,0.011921853962
0.149600000000,0.024689903865
0.149700000000,0.005537829010
0.149800000000,0.032350733806
0.149900000000,0.013198658952
0.150000000000,0.028520318836
0.150100000000,0.025966708855
0.150200000000,0.020859488894
0.150300000000,0.011921853962
0.150400000000,0.017029073923
0.150500000000,0.027243513845
0.150600000000,0.033627538797
0.150700000000,0.001707414039
0.150800000000,0.022136293884
0.150900000000,0.009368243981
0.151000000000,0.005537829010
0.151100000000,0.005537829010
0.151200000000,0.010645048971
0.151300000000,0.024689903865
0.151400000000,0.001707414039
0.151500000000,-0.004676610912
0.151600000000,0.009368243981
0.151700000000,0.010645048971
0.151800000000,0.010645048971
0.151900000000,-0.014891050835
0.152000000000,-0.003399805922
0.152100000000,0.019582683903
0.152200000000,-0.004676610912
0.152300000000,-0.004676610912
0.152400000000,-0.005953415902
0.152500000000,-0.008507025883
0.152600000000,0.009368243981
0.152700000000,0.009368243981
0.152800000000,-0.005953415902
0.152900000000,-0.009783830873
0.153000000000,-0.017444660815
0.153100000000,-0.008507025883
0.153200000000,-0.017444660815
0.153300000000,-0.003399805922
0.153400000000,-0.017444660815
0.153500000000,-0.021275075786
0.153600000000,0.001707414039
0.153700000000,-0.018721465805
0.153800000000,-0.009783830873
0.153900000000,0.000430609049
0.154000000000,-0.007230220893
0.154100000000,0.006814634000
0.154200000000,0.008091438991
0.154300000000,-0.004676610912
0.154400000000,0.002984219030
0.154500000000,0.005537829010
0.154600000000,-0.000846195941
0.154700000000,-0.004676610912
0.154800000000,0.002984219030
0.154900000000,0.002984219030
0.155000000000,-0.000846195941
0.155100000000,0.001707414039
0.155200000000,0.001707414039
0.155300000000,0.009368243981
0.155400000000,0.001707414039
0.155500000000,-0.008507025883
0.155600000000,-0.019998270796
0.155700000000,-0.014891050835
0.155800000000,0.005537829010
0.155900000000,-0.011060635864
0.156000000000,-0.017444660815
0.156100000000,-0.019998270796
0.156200000000,-0.014891050835
0.156300000000,-0.014891050835
0.156400000000,-0.021275075786
0.156500000000,-0.009783830873
0.156600000000,-0.007230220893
0.156700000000,-0.019998270796
0.156800000000,-0.005953415902
0.156900000000,-0.030212710718
0.157000000000,-0.009783830873
0.157100000000,-0.013614245844
0.157200000000,-0.023828685767
0.157300000000,0.008091438991
0.157400000000,-0.009783830873
0.157500000000,-0.022551880776
0.157600000000,-0.018721465805
0.157700000000,-0.030212710718
0.157800000000,-0.030212710718
0.157900000000,-0.021275075786
0.158000000000,-0.026382295747
0.158100000000,-0.017444660815
0.158200000000,-0.018721465805
0.158300000000,-0.012337440854
0.158400000000,-0.034043125689
0.158500000000,-0.022551880776
0.158600000000,-0.035319930679
0.158700000000,-0.031489515708
0.158800000000,-0.012337440854
0.158900000000,-0.013614245844
0.159000000000,-0.027659100737
0.159100000000,-0.014891050835
0.159200000000,-0.005953415902
0.159300000000,-0.008507025883
0.159400000000,0.008091438991
0.159500000000,-0.013614245844
0.159600000000,-0.023828685767
0.159700000000,-0.000846195941
0.159800000000,-0.019998270796
0.159900000000,0.020859488894
0.160000000000,0.001707414039
0.160100000000,-0.011060635864
0.160200000000,0.004261024020
0.160300000000,-0.018721465805
0.160400000000,-0.007230220893
0.160500000000,0.015752268933
0.160600000000,0.001707414039
0.160700000000,0.001707414039
0.160800000000,0.018305878913
0.160900000000,0.019582683903
0.161000000000,0.013198658952
0.161100000000,0.002984219030
0.161200000000,0.011921853962
0.161300000000,0.005537829010
0.161400000000,0.027243513845
0.161500000000,-0.003399805922
0.161600000000,0.001707414039
0.161700000000,0.022136293884
0.161800000000,0.015752268933
0.161900000000,0.027243513845
0.162000000000,0.024689903865
0.162100000000,0.013198658952
0.162200000000,-0.011060635864
0.162300000000,0.010645048971
0.162400000000,0.013198658952
0.162500000000,0.010645048971
0.162600000000,0.011921853962
0.162700000000,0.024689903865
0.162800000000,0.009368243981
0.162900000000,0.023413098874
0.163000000000,0.032350733806
0.163100000000,0.006814634000
0.163200000000,0.006814634000
0.163300000000,0.013198658952
0.163400000000,0.018305878913
0.163500000000,0.015752268933
0.163600000000,0.019582683903
0.163700000000,0.015752268933
0.163800000000,0.006814634000
0.163900000000,0.011921853962
0.164000000000,-0.000846195941
0.164100000000,-0.004676610912
0.164200000000,0.019582683903
0.164300000000,0.025966708855
0.164400000000,0.006814634000
0.164500000000,0.011921853962
0.164600000000,0.005537829010
0.164700000000,0.002984219030
0.164800000000,0.018305878913
0.164900000000,0.023413098874
0.165000000000,0.020859488894
0.165100000000,0.005537829010
0.165200000000,-0.005953415902
0.165300000000,0.001707414039
0.165400000000,0.018305878913
0.165500000000,0.023413098874
0.165600000000,-0.004676610912
0.165700000000,0.015752268933
0.165800000000,0.008091438991
0.165900000000,0.014475463942
0.166000000000,-0.004676610912
0.166100000000,0.022136293884
0.166200000000,0.015752268933
0.166300000000,0.020859488894
0.166400000000,0.032350733806
0.166500000000,0.033627538797
0.166600000000,0.023413098874
0.166700000000,0.037457953768
0.166800000000,0.033627538797
0.166900000000,0.022136293884
0.167000000000,0.009368243981
0.167100000000,0.017029073923
0.167200000000,0.009368243981
0.167300000000,0.022136293884
0.167400000000,0.027243513845
0.167500000000,0.020859488894
0.167600000000,0.022136293884
0.167700000000,0.013198658952
0.167800000000,0.009368243981
0.167900000000,0.022136293884
0.168000000000,0.017029073923
0.168100000000,0.002984219030
0.168200000000,0.005537829010
0.168300000000,0.014475463942
0.168400000000,0.020859488894
0.168500000000,0.001707414039
0.168600000000,0.025966708855
0.168700000000,0.017029073923
0.168800000000,0.006814634000
0.168900000000,0.005537829010
0.169000000000,-0.000846195941
0.169100000000,-0.013614245844
0.169200000000,0.002984219030
0.169300000000,0.017029073923
0.169400000000,0.008091438991
0.169500000000,0.006814634000
0.169600000000,-0.011060635864
0.169700000000,-0.013614245844
0.169800000000,-0.012337440854
0.169900000000,0.002984219030
0.170000000000,0.002984219030
0.170100000000,-0.018721465805
0.170200000000,-0.003399805922
0.170300000000,-0.013614245844
0.170400000000,-0.017444660815
0.170500000000,-0.008507025883
0.170600000000,0.001707414039
0.170700000000,-0.007230220893
0.170800000000,0.001707414039
0.170900000000,-0.000846195941
0.171000000000,0.000430609049
0.171100000000,-0.021275075786
0.171200000000,-0.016167855825
0.171300000000,-0.019998270796
0.171400000000,-0.018721465805
0.171500000000,-0.014891050835
0.171600000000,-0.030212710718
0.171700000000,-0.013614245844
0.171800000000,-0.005953415902
0.171900000000,-0.021275075786
0.172000000000,-0.013614245844
0.172100000000,-0.017444660815
0.172200000000,-0.005953415902
0.172300000000,0.004261024020
0.172400000000,-0.008507025883
0.172500000000,-0.012337440854
0.172600000000,-0.019998270796
0.172700000000,-0.011060635864
0.172800000000,-0.017444660815
0.172900000000,-0.014891050835
0.173000000000,0.006814634000
0.173100000000,-0.002123000932
0.173200000000,-0.007230220893
0.173300000000,-0.000846195941
0.173400000000,-0.013614245844
0.173500000000,-0.004676610912
0.173600000000,-0.027659100737
0.173700000000,-0.007230220893
0.173800000000,-0.005953415902
0.173900000000,-0.007230220893
0.174000000000,-0.014891050835
0.174100000000,-0.025105490757
0.174200000000,-0.019998270796
0.174300000000,-0.018721465805
0.174400000000,-0.017444660815
0.174500000000,-0.008507025883
0.174600000000,-0.014891050835
0.174700000000,-0.019998270796
0.174800000000,-0.013614245844
0.174900000000,0.011921853962
0.175000000000,-0.014891050835
0.175100000000,-0.005953415902
0.175200000000,0.013198658952
0.175300000000,0.005537829010
0.175400000000,-0.013614245844
0.175500000000,-0.007230220893
0.175600000000,-0.021275075786
0.175700000000,-0.014891050835
0.175800000000,-0.008507025883
0.175900000000,0.011921853962
0.176000000000,-0.005953415902
0.176100000000,-0.028935905728
0.176200000000,-0.008507025883
0.176300000000,-0.030212710718
0.176400000000,-0.004676610912
0.176500000000,0.001707414039
0.176600000000,-0.011060635864
0.176700000000,-0.030212710718
0.176800000000,0.001707414039
0.176900000000,-0.012337440854
0.177000000000,-0.007230220893
0.177100000000,-0.025105490757
0.177200000000,-0.018721465805
0.177300000000,-0.000846195941
0.177400000000,0.017029073923
0.177500000000,0.017029073923
0.177600000000,-0.007230220893
0.177700000000,-0.018721465805
0.177800000000,-0.008507025883
0.177900000000,-0.007230220893
0.178000000000,0.019582683903
0.178100000000,0.019582683903
0.178200000000,0.005537829010
0.178300000000,-0.009783830873
0.178400000000,0.010645048971
0.178500000000,0.017029073923
0.178600000000,0.017029073923
0.178700000000,0.017029073923
0.178800000000,0.001707414039
0.178900000000,0.010645048971
0.179000000000,0.033627538797
0.179100000000,0.000430609049
0.179200000000,0.002984219030
0.179300000000,0.029797123826
0.179400000000,0.017029073923
0.179500000000,0.031073928816
0.179600000000,0.011921853962
0.179700000000,0.009368243981
0.179800000000,0.014475463942
0.179900000000,0.013198658952
0.180000000000,0.037457953768
0.180100000000,0.028520318836
0.180200000000,0.024689903865
0.180300000000,0.015752268933
0.180400000000,0.013198658952
0.180500000000,0.005537829010
0.180600000000,0.020859488894
0.180700000000,0.008091438991
0.180800000000,0.011921853962
0.180900000000,0.013198658952
0.181000000000,0.020859488894
0.181100000000,0.020859488894
0.181200000000,0.022136293884
0.181300000000,0.005537829010
0.181400000000,0.027243513845
0.181500000000,0.036181148777
0.181600000000,0.025966708855
0.181700000000,0.013198658952
0.181800000000,0.002984219030
0.181900000000,0.005537829010
0.182000000000,0.022136293884
0.182100000000,0.011921853962
0.182200000000,0.029797123826
0.182300000000,0.015752268933
0.182400000000,0.002984219030
0.182500000000,0.017029073923
0.182600000000,-0.011060635864
0.182700000000,-0.003399805922
0.182800000000,0.010645048971
0.182900000000,0.001707414039
0.183000000000,0.023413098874
0.183100000000,0.019582683903
0.183200000000,0.001707414039
0.183300000000,-0.002123000932
0.183400000000,0.005537829010
0.183500000000,0.010645048971
0.183600000000,0.001707414039
0.183700000000,0.000430609049
0.183800000000,0.005537829010
0.183900000000,0.001707414039
0.184000000000,0.022136293884
0.184100000000,0.025966708855
0.184200000000,0.023413098874
0.184300000000,0.005537829010
0.184400000000,-0.007230220893
0.184500000000,0.017029073923
0.184600000000,0.010645048971
0.184700000000,0.005537829010
0.184800000000,0.024689903865
0.184900000000,0.004261024020
0.185000000000,0.029797123826
0.185100000000,0.010645048971
0.185200000000,0.002984219030
0.185300000000,0.017029073923
0.185400000000,0.015752268933
0.185500000000,0.009368243981
0.185600000000,0.025966708855
0.185700000000,0.011921853962
0.185800000000,-0.003399805922
0.185900000000,0.000430609049
0.186000000000,0.005537829010
0.186100000000,0.009368243981
0.186200000000,0.000430609049
0.186300000000,0.009368243981
0.186400000000,-0.008507025883
0.186500000000,0.006814634000
0.186600000000,0.001707414039
0.186700000000,0.011921853962
0.186800000000,0.008091438991
0.186900000000,-0.002123000932
0.187000000000,-0.008507025883
0.187100000000,-0.009783830873
0.187200000000,-0.000846195941
0.187300000000,0.009368243981
0.187400000000,-0.008507025883
0.187500000000,0.005537829010
0.187600000000,-0.008507025883
0.187700000000,-0.007230220893
0.187800000000,-0.008507025883
0.187900000000,-0.022551880776
0.188000000000,-0.012337440854
0.188100000000,-0.005953415902
0.188200000000,-0.008507025883
0.188300000000,-0.011060635864
0.188400000000,-0.016167855825
0.188500000000,-0.005953415902
0.188600000000,-0.019998270796
0.188700000000,-0.026382295747
0.188800000000,-0.028935905728
0.188900000000,-0.021275075786
0.189000000000,-0.017444660815
0.189100000000,-0.017444660815
0.189200000000,-0.018721465805
0.189300000000,-0.030212710718
0.189400000000,-0.037873540660
0.189500000000,-0.028935905728
0.189600000000,-0.017444660815
0.189700000000,-0.017444660815
0.189800000000,-0.007230220893
0.189900000000,-0.022551880776
0.190000000000,-0.014891050835
0.190100000000,-0.005953415902
0.190200000000,-0.017444660815
0.190300000000,0.010645048971
0.190400000000,0.001707414039
0.190500000000,-0.013614245844
0.190600000000,-0.009783830873
0.190700000000,-0.008507025883
0.190800000000,-0.013614245844
0.190900000000,-0.007230220893
0.191000000000,-0.000846195941
0.191100000000,0.000430609049
0.191200000000,-0.025105490757
0.191300000000,-0.004676610912
0.191400000000,-0.018721465805
0.191500000000,0.001707414039
0.191600000000,0.004261024020
0.191700000000,-0.007230220893
0.191800000000,-0.008507025883
0.191900000000,-0.018721465805
0.192000000000,-0.019998270796
0.192100000000,0.009368243981
0.192200000000,-0.019998270796
0.192300000000,-0.012337440854
0.192400000000,0.001707414039
0.192500000000,0.005537829010
0.192600000000,-0.000846195941
0.192700000000,-0.021275075786
0.192800000000,-0.003399805922
0.192900000000,-0.018721465805
0.193000000000,0.011921853962
0.193100000000,-0.008507025883
0.193200000000,0.005537829010
0.193300000000,-0.016167855825
0.193400000000,0.000430609049
0.193500000000,0.001707414039
0.193600000000,-0.007230220893
0.193700000000,-0.005953415902
0.193800000000,-0.009783830873
0.193900000000,-0.027659100737
0.194000000000,-0.008507025883
0.194100000000,-0.013614245844
0.194200000000,-0.018721465805
0.194300000000,-0.008507025883
0.194400000000,-0.016167855825
0.194500000000,0.005537829010
0.194600000000,0.001707414039
0.194700000000,-0.002123000932
0.194800000000,0.001707414039
0.194900000000,-0.012337440854
0.195000000000,-0.017444660815
0.195100000000,0.017029073923
0.195200000000,-0.000846195941
0.195300000000,0.006814634000
0.195400000000,-0.003399805922
0.195500000000,-0.007230220893
0.195600000000,0.002984219030
0.195700000000,-0.002123000932
0.195800000000,-0.004676610912
0.195900000000,0.005537829010
0.196000000000,0.013198658952
0.196100000000,0.020859488894
0.196200000000,0.015752268933
0.196300000000,0.017029073923
0.196400000000,0.001707414039
0.196500000000,0.019582683903
0.196600000000,0.027243513845
0.196700000000,0.038734758758
0.196800000000,0.017029073923
0.196900000000,0.027243513845
0.197000000000,0.023413098874
0.197100000000,0.036181148777
0.197200000000,0.019582683903
0.197300000000,0.013198658952
0.197400000000,0.027243513845
0.197500000000,0.020859488894
0.197600000000,0.027243513845
0.197700000000,0.013198658952
0.197800000000,0.033627538797
0.197900000000,0.022136293884
0.198000000000,0.004261024020
0.198100000000,0.004261024020
0.198200000000,0.037457953768
0.198300000000,0.013198658952
0.198400000000,0.010645048971
0.198500000000,0.013198658952
0.198600000000,0.028520318836
0.198700000000,0.008091438991
0.198800000000,0.036181148777
0.198900000000,0.005537829010
0.199000000000,-0.000846195941
0.199100000000,0.013198658952
0.199200000000,0.029797123826
0.199300000000,0.010645048971
0.199400000000,0.010645048971
0.199500000000,0.014475463942
0.199600000000,0.031073928816
0.199700000000,0.002984219030
0.199800000000,-0.013614245844
0.199900000000,0.015752268933
0.200000000000,0.009368243981
0.200100000000,0.008091438991
0.200200000000,0.005537829010
0.200300000000,-0.000846195941
0.200400000000,0.008091438991
0.200500000000,-0.008507025883
0.200600000000,0.001707414039
0.200700000000,0.020859488894
0.200800000000,0.010645048971
0.200900000000,0.002984219030
0.201000000000,-0.004676610912
0.201100000000,-0.011060635864
0.201200000000,0.008091438991
0.201300000000,0.011921853962
0.201400000000,-0.003399805922
0.201500000000,-0.003399805922
0.201600000000,0.032350733806
0.201700000000,0.041288368738
0.201800000000,0.009368243981
0.201900000000,0.017029073923
0.202000000000,0.010645048971
0.202100000000,0.006814634000
0.202200000000,0.009368243981
0.202300000000,0.014475463942
0.202400000000,0.013198658952
0.202500000000,0.011921853962
0.202600000000,0.011921853962
0.202700000000,0.005537829010
0.202800000000,0.001707414039
0.202900000000,0.011921853962
0.203000000000,-0.002123000932
0.203100000000,-0.012337440854
0.203200000000,0.011921853962
0.203300000000,0.005537829010
0.203400000000,0.004261024020
0.203500000000,0.001707414039
0.203600000000,-0.003399805922
0.203700000000,0.009368243981
0.203800000000,0.001707414039
0.203900000000,0.002984219030
0.204000000000,0.002984219030
0.204100000000,0.005537829010
0.204200000000,0.023413098874
0.204300000000,0.008091438991
0.204400000000,0.006814634000
0.204500000000,-0.008507025883
0.204600000000,0.005537829010
0.204700000000,-0.004676610912
0.204800000000,0.005537829010
0.204900000000,-0.023828685767
0.205000000000,-0.034043125689
0.205100000000,-0.012337440854
0.205200000000,-0.017444660815
0.205300000000,-0.021275075786
0.205400000000,-0.019998270796
0.205500000000,-0.022551880776
0.205600000000,-0.035319930679
0.205700000000,-0.017444660815
0.205800000000,-0.025105490757
0.205900000000,-0.026382295747
0.206000000000,-0.030212710718
0.206100000000,-0.023828685767
0.206200000000,-0.013614245844
0.206300000000,-0.003399805922
0.206400000000,-0.014891050835
0.206500000000,-0.032766320699
0.206600000000,-0.034043125689
0.206700000000,-0.016167855825
0.206800000000,-0.016167855825
0.206900000000,-0.013614245844
0.207000000000,-0.032766320699
0.207100000000,-0.014891050835
0.207200000000,-0.018721465805
0.207300000000,-0.013614245844
0.207400000000,-0.013614245844
0.207500000000,-0.000846195941
0.207600000000,-0.003399805922
0.207700000000,0.005537829010
0.207800000000,-0.013614245844
0.207900000000,-0.004676610912
0.208000000000,-0.008507025883
0.208100000000,-0.008507025883
0.208200000000,-0.008507025883
0.208300000000,0.000430609049
0.208400000000,-0.014891050835
0.208500000000,-0.003399805922
0.208600000000,-0.012337440854
0.208700000000,-0.007230220893
0.208800000000,0.019582683903
0.208900000000,-0.004676610912
0.209000000000,0.002984219030
0.209100000000,-0.014891050835
0.209200000000,-0.014891050835
0.209300000000,0.000430609049
0.209400000000,-0.016167855825
0.209500000000,-0.009783830873
0.209600000000,0.008091438991
0.209700000000,-0.007230220893
0.209800000000,0.004261024020
0.209900000000,-0.003399805922
0.210000000000,-0.009783830873
0.210100000000,0.015752268933
0.210200000000,-0.000846195941
0.210300000000,-0.011060635864
0.210400000000,0.002984219030
0.210500000000,0.019582683903
0.210600000000,-0.003399805922
0.210700000000,-0.003399805922
0.210800000000,0.001707414039
0.210900000000,0.006814634000
0.211000000000,0.017029073923
0.211100000000,-0.021275075786
0.211200000000,-0.008507025883
0.211300000000,-0.008507025883
0.211400000000,-0.008507025883
0.211500000000,-0.003399805922
0.211600000000,-0.005953415902
0.211700000000,-0.014891050835
0.211800000000,0.019582683903
0.211900000000,-0.004676610912
0.212000000000,-0.005953415902
0.212100000000,-0.017444660815
0.212200000000,0.002984219030
0.212300000000,0.001707414039
0.212400000000,-0.000846195941
0.212500000000,-0.004676610912
0.212600000000,0.013198658952
0.212700000000,0.009368243981
0.212800000000,0.018305878913
0.212900000000,0.015752268933
0.213000000000,0.005537829010
0.213100000000,0.001707414039
0.213200000000,0.005537829010
0.213300000000,0.033627538797
0.213400000000,0.029797123826
0.213500000000,0.032350733806
0.213600000000,0.020859488894
0.213700000000,0.010645048971
0.213800000000,0.023413098874
0.213900000000,0.031073928816
0.214000000000,0.019582683903
0.214100000000,0.010645048971
0.214200000000,0.027243513845
0.214300000000,0.023413098874
0.214400000000,0.020859488894
0.214500000000,0.020859488894
0.214600000000,0.013198658952
0.214700000000,0.017029073923
0.214800000000,0.041288368738
0.214900000000,0.010645048971
0.215000000000,0.010645048971
0.215100000000,0.019582683903
0.215200000000,0.011921853962
0.215300000000,0.014475463942
0.215400000000,0.025966708855
0.215500000000,0.010645048971
0.215600000000,0.027243513845
0.215700000000,0.005537829010
0.215800000000,0.031073928816
0.215900000000,0.004261024020
0.216000000000,0.020859488894
0.216100000000,0.031073928816
0.216200000000,0.008091438991
0.216300000000,0.015752268933
0.216400000000,0.019582683903
0.216500000000,0.000430609049
0.216600000000,0.011921853962
0.216700000000,-0.007230220893
0.216800000000,0.017029073923
0.216900000000,0.001707414039
0.217000000000,0.017029073923
0.217100000000,-0.003399805922
0.217200000000,-0.004676610912
0.217300000000,-0.004676610912
0.217400000000,0.013198658952
0.217500000000,0.002984219030
0.217600000000,-0.003399805922
0.217700000000,0.010645048971
0.217800000000,0.015752268933
0.217900000000,-0.017444660815
0.218000000000,0.006814634000
0.218100000000,-0.011060635864
0.218200000000,0.005537829010
0.218300000000,0.004261024020
0.218400000000,0.014475463942
0.218500000000,0.005537829010
0.218600000000,-0.028935905728
0.218700000000,-0.030212710718
0.218800000000,-0.003399805922
0.218900000000,0.011921853962
0.219000000000,-0.000846195941
0.219100000000,0.004261024020
0.219200000000,0.005537829010
0.219300000000,0.015752268933
0.219400000000,0.005537829010
0.219500000000,0.013198658952
0.219600000000,-0.000846195941
0.219700000000,0.013198658952
0.219800000000,0.013198658952
0.219900000000,0.011921853962
0.220000000000,0.022136293884
0.220100000000,0.005537829010
0.220200000000,0.002984219030
0.220300000000,0.001707414039
0.220400000000,-0.000846195941
0.220500000000,0.011921853962
0.220600000000,0.004261024020
0.220700000000,0.006814634000
0.220800000000,-0.008507025883
0.220900000000,-0.008507025883
0.221000000000,0.006814634000
0.221100000000,-0.012337440854
0.221200000000,-0.012337440854
0.221300000000,-0.003399805922
0.221400000000,-0.003399805922
0.221500000000,-0.007230220893
0.221600000000,-0.007230220893
0.221700000000,-0.019998270796
0.221800000000,-0.012337440854
0.221900000000,-0.000846195941
0.222000000000,-0.000846195941
0.222100000000,-0.008507025883
0.222200000000,-0.007230220893
0.222300000000,-0.008507025883
0.222400000000,-0.014891050835
0.222500000000,-0.022551880776
0.222600000000,-0.013614245844
0.222700000000,-0.008507025883
0.222800000000,-0.037873540660
0.222900000000,-0.017444660815
0.223000000000,-0.034043125689
0.223100000000,-0.023828685767
0.223200000000,-0.042980760621
0.223300000000,-0.032766320699
0.223400000000,-0.021275075786
0.223500000000,-0.009783830873
0.223600000000,-0.031489515708
0.223700000000,-0.021275075786
0.223800000000,-0.044257565611
0.223900000000,-0.003399805922
0.224000000000,-0.023828685767
0.224100000000,-0.023828685767
0.224200000000,-0.023828685767
0.224300000000,-0.030212710718
0.224400000000,-0.008507025883
0.224500000000,-0.031489515708
0.224600000000,-0.035319930679
0.224700000000,-0.023828685767
0.224800000000,-0.019998270796
0.224900000000,0.002984219030
0.225000000000,-0.016167855825
0.225100000000,-0.009783830873
0.225200000000,-0.009783830873
0.225300000000,-0.018721465805
0.225400000000,-0.003399805922
0.225500000000,0.011921853962
0.225600000000,0.004261024020
0.225700000000,-0.008507025883
0.225800000000,-0.022551880776
0.225900000000,-0.005953415902
0.226000000000,-0.005953415902
0.226100000000,0.002984219030
0.226200000000,0.005537829010
0.226300000000,-0.014891050835
0.226400000000,0.019582683903
0.226500000000,-0.016167855825
0.226600000000,0.010645048971
0.226700000000,-0.014891050835
0.226800000000,0.015752268933
0.226900000000,0.025966708855
0.227000000000,0.022136293884
0.227100000000,0.005537829010
0.227200000000,0.001707414039
0.227300000000,-0.008507025883
0.227400000000,0.005537829010
0.227500000000,0.015752268933
0.227600000000,0.006814634000
0.227700000000,0.000430609049
0.227800000000,0.008091438991
0.227900000000,0.015752268933
0.228000000000,-0.014891050835
0.228100000000,0.002984219030
0.228200000000,0.009368243981
0.228300000000,0.005537829010
0.228400000000,0.014475463942
0.228500000000,0.001707414039
0.228600000000,0.020859488894
0.228700000000,0.002984219030
0.228800000000,-0.013614245844
0.228900000000,0.013198658952
0.229000000000,0.032350733806
0.229100000000,0.017029073923
0.229200000000,0.008091438991
0.229300000000,0.000430609049
0.229400000000,-0.003399805922
0.229500000000,0.005537829010
0.229600000000,0.010645048971
0.229700000000,-0.000846195941
0.229800000000,-0.000846195941
0.229900000000,0.017029073923
0.230000000000,0.014475463942
0.230100000000,0.009368243981
0.230200000000,0.002984219030
0.230300000000,-0.003399805922
0.230400000000,0.006814634000
0.230500000000,0.013198658952
0.230600000000,0.008091438991
0.230700000000,0.005537829010
0.230800000000,0.008091438991
0.230900000000,0.015752268933
0.231000000000,0.019582683903
0.231100000000,0.029797123826
0.231200000000,0.025966708855
0.231300000000,-0.012337440854
0.231400000000,0.015752268933
0.231500000000,0.014475463942
0.231600000000,0.010645048971
0.231700000000,0.025966708855
0.231800000000,0.033627538797
0.231900000000,0.020859488894
0.232000000000,0.023413098874
0.232100000000,0.040011563748
0.232200000000,0.001707414039
0.232300000000,0.020859488894
0.232400000000,0.040011563748
0.232500000000,0.025966708855
0.232600000000,0.024689903865
0.232700000000,0.046395588700
0.232800000000,0.025966708855
0.232900000000,0.037457953768
0.233000000000,0.029797123826
0.233100000000,0.025966708855
0.233200000000,0.010645048971
0.233300000000,0.009368243981
0.233400000000,0.011921853962
0.233500000000,0.019582683903
0.233600000000,0.010645048971
0.233700000000,0.017029073923
0.233800000000,0.006814634000
0.233900000000,0.011921853962
0.234000000000,0.027243513845
0.234100000000,0.018305878913
0.234200000000,-0.003399805922
0.234300000000,0.009368243981
0.234400000000,0.010645048971
0.234500000000,0.017029073923
0.234600000000,0.013198658952
0.234700000000,-0.003399805922
0.234800000000,-0.000846195941
0.234900000000,0.036181148777
0.235000000000,0.010645048971
0.235100000000,0.010645048971
0.235200000000,0.011921853962
0.235300000000,-0.019998270796
0.235400000000,-0.011060635864
0.235500000000,-0.008507025883
0.235600000000,-0.019998270796
0.235700000000,0.000430609049
0.235800000000,-0.016167855825
0.235900000000,-0.027659100737
0.236000000000,-0.013614245844
0.236100000000,-0.025105490757
0.236200000000,-0.005953415902
0.236300000000,-0.014891050835
0.236400000000,-0.013614245844
0.236500000000,-0.004676610912
0.236600000000,-0.003399805922
0.236700000000,-0.008507025883
0.236800000000,-0.007230220893
0.236900000000,-0.013614245844
0.237000000000,-0.013614245844
0.237100000000,-0.008507025883
0.237200000000,-0.013614245844
0.237300000000,-0.021275075786
0.237400000000,-0.011060635864
0.237500000000,-0.008507025883
0.237600000000,0.000430609049
0.237700000000,0.005537829010
0.237800000000,0.009368243981
0.237900000000,0.001707414039
0.238000000000,0.005537829010
0.238100000000,0.001707414039
0.238200000000,-0.005953415902
0.238300000000,-0.008507025883
0.238400000000,-0.000846195941
0.238500000000,-0.000846195941
0.238600000000,-0.005953415902
0.238700000000,-0.003399805922
0.238800000000,-0.014891050835
0.238900000000,-0.021275075786
0.239000000000,-0.008507025883
0.239100000000,-0.004676610912
0.239200000000,-0.008507025883
0.239300000000,-0.013614245844
0.239400000000,-0.028935905728
0.239500000000,-0.007230220893
0.239600000000,0.001707414039
0.239700000000,-0.014891050835
0.239800000000,-0.030212710718
0.239900000000,-0.016167855825
0.240000000000,-0.008507025883
0.240100000000,-0.023828685767
0.240200000000,0.002984219030
0.240300000000,-0.019998270796
0.240400000000,-0.021275075786
0.240500000000,-0.025105490757
0.240600000000,0.006814634000
0.240700000000,-0.003399805922
0.240800000000,-0.008507025883
0.240900000000,-0.031489515708
0.241000000000,-0.007230220893
0.241100000000,-0.014891050835
0.241200000000,-0.007230220893
0.241300000000,-0.021275075786
0.241400000000,-0.034043125689
0.241500000000,-0.012337440854
0.241600000000,-0.036596735670
0.241700000000,-0.030212710718
0.241800000000,-0.013614245844
0.241900000000,-0.040427150640
0.242000000000,-0.014891050835
0.242100000000,-0.014891050835
0.242200000000,-0.016167855825
0.242300000000,-0.034043125689
0.242400000000,-0.012337440854
0.242500000000,-0.031489515708
0.242600000000,-0.002123000932
0.242700000000,0.000430609049
0.242800000000,-0.023828685767
0.242900000000,-0.017444660815
0.243000000000,-0.009783830873
0.243100000000,-0.021275075786
0.243200000000,-0.003399805922
0.243300000000,-0.023828685767
0.243400000000,-0.013614245844
0.243500000000,0.000430609049
0.243600000000,-0.004676610912
0.243700000000,-0.008507025883
0.243800000000,-0.005953415902
0.243900000000,0.002984219030
0.244000000000,-0.005953415902
0.244100000000,0.017029073923
0.244200000000,0.010645048971
0.244300000000,0.029797123826
0.244400000000,0.022136293884
0.244500000000,0.008091438991
0.244600000000,0.022136293884
0.244700000000,0.006814634000
0.244800000000,0.011921853962
0.244900000000,0.000430609049
0.245000000000,0.018305878913
0.245100000000,0.019582683903
0.245200000000,0.011921853962
0.245300000000,0.013198658952
0.245400000000,0.002984219030
0.245500000000,-0.002123000932
0.245600000000,0.018305878913
0.245700000000,0.000430609049
0.245800000000,0.011921853962
0.245900000000,0.011921853962
0.246000000000,0.001707414039
0.246100000000,0.010645048971
0.246200000000,0.025966708855
0.246300000000,0.001707414039
0.246400000000,0.001707414039
0.246500000000,0.011921853962
0.246600000000,0.027243513845
0.246700000000,0.019582683903
0.246800000000,0.025966708855
0.246900000000,0.019582683903
0.247000000000,-0.003399805922
0.247100000000,0.001707414039
0.247200000000,0.013198658952
0.247300000000,-0.000846195941
0.247400000000,0.001707414039
0.247500000000,-0.000846195941
0.247600000000,0.014475463942
0.247700000000,0.010645048971
0.247800000000,0.015752268933
0.247900000000,0.002984219030
0.248000000000,0.005537829010
0.248100000000,0.013198658952
0.248200000000,0.011921853962
0.248300000000,0.005537829010
0.248400000000,0.009368243981
0.248500000000,0.010645048971
0.248600000000,0.011921853962
0.248700000000,0.015752268933
0.248800000000,0.014475463942
0.248900000000,0.020859488894
0.249000000000,-0.003399805922
0.249100000000,0.002984219030
0.249200000000,0.001707414039
0.249300000000,0.017029073923
0.249400000000,0.027243513845
0.249500000000,0.010645048971
0.249600000000,0.031073928816
0.249700000000,0.011921853962
0.249800000000,0.015752268933
0.249900000000,0.028520318836
0.250000000000,0.020859488894
0.250100000000,0.032350733806
0.250200000000,0.006814634000
0.250300000000,0.015752268933
0.250400000000,0.027243513845
0.250500000000,0.009368243981
0.250600000000,0.019582683903
0.250700000000,0.020859488894
0.250800000000,0.020859488894
0.250900000000,0.020859488894
0.251000000000,-0.007230220893
0.251100000000,0.013198658952
0.251200000000,0.004261024020
0.251300000000,0.025966708855
0.251400000000,0.009368243981
0.251500000000,0.008091438991
0.251600000000,0.017029073923
0.251700000000,-0.004676610912
0.251800000000,0.024689903865
0.251900000000,0.010645048971
0.252000000000,-0.007230220893
0.252100000000,0.015752268933
0.252200000000,0.001707414039
0.252300000000,0.000430609049
0.252400000000,0.006814634000
0.252500000000,0.000430609049
0.252600000000,0.005537829010
0.252700000000,0.011921853962
0.252800000000,0.011921853962
0.252900000000,0.014475463942
0.253000000000,-0.011060635864
0.253100000000,0.006814634000
0.253200000000,-0.019998270796
0.253300000000,-0.007230220893
0.253400000000,-0.007230220893
0.253500000000,-0.014891050835
0.253600000000,0.005537829010
0.253700000000,-0.003399805922
0.253800000000,0.009368243981
0.253900000000,-0.011060635864
0.254000000000,-0.039150345650
0.254100000000,-0.008507025883
0.254200000000,-0.011060635864
0.254300000000,0.010645048971
0.254400000000,-0.000846195941
0.254500000000,-0.016167855825
0.254600000000,-0.004676610912
0.254700000000,-0.008507025883
0.254800000000,-0.005953415902
0.254900000000,-0.013614245844
0.255000000000,-0.026382295747
0.255100000000,-0.013614245844
0.255200000000,-0.014891050835
0.255300000000,-0.027659100737
0.255400000000,-0.039150345650
0.255500000000,-0.021275075786
0.255600000000,-0.002123000932
0.255700000000,-0.000846195941
0.255800000000,-0.008507025883
0.255900000000,0.005537829010
0.256000000000,-0.008507025883
0.256100000000,-0.013614245844
0.256200000000,-0.014891050835
0.256300000000,-0.021275075786
0.256400000000,-0.003399805922
0.256500000000,-0.003399805922
0.256600000000,-0.005953415902
0.256700000000,-0.018721465805
0.256800000000,0.009368243981
0.256900000000,0.015752268933
0.257000000000,-0.025105490757
0.257100000000,-0.017444660815
0.257200000000,-0.008507025883
0.257300000000,-0.011060635864
0.257400000000,-0.021275075786
0.257500000000,-0.004676610912
0.257600000000,-0.005953415902
0.257700000000,-0.011060635864
0.257800000000,-0.008507025883
0.257900000000,-0.014891050835
0.258000000000,-0.021275075786
0.258100000000,-0.008507025883
0.258200000000,-0.005953415902
0.258300000000,-0.013614245844
0.258400000000,-0.011060635864
0.258500000000,-0.014891050835
0.258600000000,-0.000846195941
0.258700000000,0.001707414039
0.258800000000,-0.003399805922
0.258900000000,0.005537829010
0.259000000000,-0.000846195941
0.259100000000,-0.023828685767
0.259200000000,-0.004676610912
0.259300000000,-0.021275075786
0.259400000000,-0.028935905728
0.259500000000,0.009368243981
0.259600000000,-0.031489515708
0.259700000000,-0.000846195941
0.259800000000,-0.022551880776
0.259900000000,-0.008507025883
0.260000000000,-0.036596735670
0.260100000000,-0.017444660815
0.260200000000,-0.018721465805
0.260300000000,-0.028935905728
0.260400000000,0.001707414039
0.260500000000,-0.013614245844
0.260600000000,-0.011060635864
0.260700000000,0.009368243981
0.260800000000,-0.008507025883
0.260900000000,-0.004676610912
0.261000000000,-0.000846195941
0.261100000000,-0.005953415902
0.261200000000,0.005537829010
0.261300000000,-0.003399805922
0.261400000000,-0.003399805922
0.261500000000,0.017029073923
0.261600000000,0.019582683903
0.261700000000,0.014475463942
0.261800000000,0.010645048971
0.261900000000,0.024689903865
0.262000000000,0.009368243981
0.262100000000,0.004261024020
0.262200000000,0.029797123826
0.262300000000,0.009368243981
0.262400000000,0.011921853962
0.262500000000,0.033627538797
0.262600000000,0.025966708855
0.262700000000,0.006814634000
0.262800000000,0.025966708855
0.262900000000,0.022136293884
0.263000000000,0.005537829010
0.263100000000,0.015752268933
0.263200000000,0.015752268933
0.263300000000,0.017029073923
0.263400000000,0.032350733806
0.263500000000,0.020859488894
0.263600000000,0.028520318836
0.263700000000,0.022136293884
0.263800000000,0.023413098874
0.263900000000,0.013198658952
0.264000000000,0.019582683903
0.264100000000,0.008091438991
0.264200000000,0.024689903865
0.264300000000,0.031073928816
0.264400000000,0.023413098874
0.264500000000,0.017029073923
0.264600000000,-0.000846195941
0.264700000000,0.022136293884
0.264800000000,0.010645048971
0.264900000000,0.032350733806
0.265000000000,0.022136293884
0.265100000000,0.001707414039
0.265200000000,0.017029073923
0.265300000000,0.013198658952
0.265400000000,0.015752268933
0.265500000000,0.013198658952
0.265600000000,0.005537829010
0.265700000000,0.009368243981
0.265800000000,-0.009783830873
0.265900000000,0.023413098874
0.266000000000,0.015752268933
0.266100000000,-0.002123000932
0.266200000000,0.002984219030
0.266300000000,0.010645048971
0.266400000000,0.006814634000
0.266500000000,0.015752268933
0.266600000000,0.006814634000
0.266700000000,-0.003399805922
0.266800000000,0.002984219030
0.266900000000,0.029797123826
0.267000000000,0.011921853962
0.267100000000,0.000430609049
0.267200000000,0.010645048971
0.267300000000,-0.005953415902
0.267400000000,0.013198658952
0.267500000000,0.002984219030
0.267600000000,-0.013614245844
0.267700000000,0.013198658952
0.267800000000,0.005537829010
0.267900000000,0.023413098874
0.268000000000,0.008091438991
0.268100000000,0.017029073923
0.268200000000,0.017029073923
0.268300000000,0.025966708855
0.268400000000,0.020859488894
0.268500000000,0.017029073923
0.268600000000,0.002984219030
0.268700000000,0.008091438991
0.268800000000,0.009368243981
0.268900000000,0.017029073923
0.269000000000,0.008091438991
0.269100000000,0.009368243981
0.269200000000,-0.011060635864
0.269300000000,0.008091438991
0.269400000000,0.013198658952
0.269500000000,0.019582683903
0.269600000000,0.001707414039
0.269700000000,-0.003399805922
0.269800000000,0.009368243981
0.269900000000,-0.011060635864
0.270000000000,0.000430609049
0.270100000000,0.018305878913
0.270200000000,-0.000846195941
0.270300000000,0.006814634000
0.270400000000,0.005537829010
0.270500000000,0.002984219030
0.270600000000,0.001707414039
0.270700000000,0.005537829010
0.270800000000,-0.004676610912
0.270900000000,-0.005953415902
0.271000000000,0.005537829010
0.271100000000,-0.009783830873
0.271200000000,0.001707414039
0.271300000000,-0.014891050835
0.271400000000,-0.017444660815
0.271500000000,-0.002123000932
0.271600000000,-0.017444660815
0.271700000000,-0.018721465805
0.271800000000,-0.025105490757
0.271900000000,-0.023828685767
0.272000000000,-0.017444660815
0.272100000000,-0.044257565611
0.272200000000,-0.023828685767
0.272300000000,-0.018721465805
0.272400000000,-0.035319930679
0.272500000000,-0.013614245844
0.272600000000,-0.030212710718
0.272700000000,-0.037873540660
0.272800000000,-0.027659100737
0.272900000000,-0.019998270796
0.273000000000,-0.016167855825
0.273100000000,-0.035319930679
0.273200000000,-0.016167855825
0.273300000000,-0.035319930679
0.273400000000,-0.027659100737
0.273500000000,-0.005953415902
0.273600000000,-0.008507025883
0.273700000000,-0.017444660815
0.273800000000,-0.012337440854
0.273900000000,-0.017444660815
0.274000000000,-0.007230220893
0.274100000000,-0.005953415902
0.274200000000,-0.014891050835
0.274300000000,-0.011060635864
0.274400000000,-0.003399805922
0.274500000000,0.002984219030
0.274600000000,-0.008507025883
0.274700000000,-0.019998270796
0.274800000000,-0.000846195941
0.274900000000,-0.016167855825
0.275000000000,-0.014891050835
0.275100000000,-0.002123000932
0.275200000000,-0.013614245844
0.275300000000,0.001707414039
0.275400000000,-0.000846195941
0.275500000000,-0.014891050835
0.275600000000,0.011921853962
0.275700000000,-0.004676610912
0.275800000000,-0.002123000932
0.275900000000,-0.009783830873
0.276000000000,-0.023828685767
0.276100000000,0.009368243981
0.276200000000,-0.011060635864
0.276300000000,0.019582683903
0.276400000000,-0.013614245844
0.276500000000,0.002984219030
0.276600000000,0.009368243981
0.276700000000,-0.009783830873
0.276800000000,-0.014891050835
0.276900000000,0.001707414039
0.277000000000,0.006814634000
0.277100000000,-0.021275075786
0.277200000000,-0.008507025883
0.277300000000,0.006814634000
0.277400000000,-0.014891050835
0.277500000000,0.010645048971
0.277600000000,0.001707414039
0.277700000000,-0.022551880776
0.277800000000,-0.018721465805
0.277900000000,0.001707414039
0.278000000000,0.010645048971
0.278100000000,-0.007230220893
0.278200000000,-0.018721465805
0.278300000000,-0.005953415902
0.278400000000,-0.008507025883
0.278500000000,-0.011060635864
0.278600000000,0.001707414039
0.278700000000,0.002984219030
0.278800000000,0.009368243981
0.278900000000,-0.003399805922
0.279000000000,-0.004676610912
0.279100000000,-0.003399805922
0.279200000000,0.006814634000
0.279300000000,0.011921853962
0.279400000000,0.010645048971
0.279500000000,0.010645048971
0.279600000000,0.020859488894
0.279700000000,0.020859488894
0.279800000000,0.010645048971
0.279900000000,0.005537829010
0.280000000000,0.023413098874
0.280100000000,0.032350733806
0.280200000000,0.017029073923
0.280300000000,0.017029073923
0.280400000000,0.018305878913
0.280500000000,0.025966708855
0.280600000000,0.013198658952
0.280700000000,0.022136293884
0.280800000000,0.029797123826
0.280900000000,0.028520318836
0.281000000000,0.023413098874
0.281100000000,0.032350733806
0.281200000000,0.022136293884
0.281300000000,0.040011563748
0.281400000000,0.023413098874
0.281500000000,0.032350733806
0.281600000000,0.010645048971
0.281700000000,0.009368243981
0.281800000000,0.042565173729
0.281900000000,0.020859488894
0.282000000000,0.020859488894
0.282100000000,0.005537829010
0.282200000000,0.009368243981
0.282300000000,-0.000846195941
0.282400000000,0.015752268933
0.282500000000,0.037457953768
0.282600000000,0.024689903865
0.282700000000,0.009368243981
0.282800000000,0.005537829010
0.282900000000,0.031073928816
0.283000000000,0.031073928816
0.283100000000,0.032350733806
0.283200000000,0.006814634000
0.283300000000,0.011921853962
0.283400000000,0.017029073923
0.283500000000,0.010645048971
0.283600000000,0.013198658952
0.283700000000,0.004261024020
0.283800000000,0.006814634000
0.283900000000,-0.003399805922
0.284000000000,0.005537829010
0.284100000000,0.004261024020
0.284200000000,-0.018721465805
0.284300000000,0.002984219030
0.284400000000,0.006814634000
0.284500000000,0.005537829010
0.284600000000,0.006814634000
0.284700000000,-0.000846195941
0.284800000000,-0.011060635864
0.284900000000,-0.003399805922
0.285000000000,-0.000846195941
0.285100000000,0.001707414039
0.285200000000,0.001707414039
0.285300000000,-0.000846195941
0.285400000000,0.019582683903
0.285500000000,0.005537829010
0.285600000000,0.001707414039
0.285700000000,0.000430609049
0.285800000000,0.005537829010
0.285900000000,-0.004676610912
0.286000000000,0.004261024020
0.286100000000,0.008091438991
0.286200000000,0.005537829010
0.286300000000,0.002984219030
0.286400000000,0.009368243981
0.286500000000,-0.000846195941
0.286600000000,0.013198658952
0.286700000000,0.023413098874
0.286800000000,0.000430609049
0.286900000000,0.004261024020
0.287000000000,-0.003399805922
0.287100000000,-0.008507025883
0.287200000000,0.002984219030
0.287300000000,0.004261024020
0.287400000000,0.006814634000
0.287500000000,0.005537829010
0.287600000000,0.013198658952
0.287700000000,-0.011060635864
0.287800000000,0.004261024020
0.287900000000,-0.008507025883
0.288000000000,-0.014891050835
0.288100000000,-0.005953415902
0.288200000000,0.001707414039
0.288300000000,0.001707414039
0.288400000000,-0.009783830873
0.288500000000,-0.007230220893
0.288600000000,0.002984219030
0.288700000000,-0.009783830873
0.288800000000,0.005537829010
0.288900000000,-0.003399805922
0.289000000000,-0.003399805922
0.289100000000,0.001707414039
0.289200000000,-0.011060635864
0.289300000000,-0.023828685767
0.289400000000,-0.017444660815
0.289500000000,-0.022551880776
0.289600000000,-0.032766320699
0.289700000000,-0.032766320699
0.289800000000,-0.036596735670
0.289900000000,-0.039150345650
0.290000000000,-0.030212710718
0.290100000000,-0.027659100737
0.290200000000,-0.021275075786
0.290300000000,-0.023828685767
0.290400000000,-0.021275075786
0.290500000000,-0.014891050835
0.290600000000,-0.034043125689
0.290700000000,-0.030212710718
0.290800000000,-0.007230220893
0.290900000000,-0.013614245844
0.291000000000,-0.026382295747
0.291100000000,-0.011060635864
0.291200000000,-0.025105490757
0.291300000000,-0.019998270796
0.291400000000,-0.017444660815
0.291500000000,-0.028935905728
0.291600000000,-0.017444660815
0.291700000000,0.004261024020
0.291800000000,-0.023828685767
0.291900000000,0.001707414039
0.292000000000,-0.008507025883
0.292100000000,0.005537829010
0.292200000000,-0.012337440854
0.292300000000,0.014475463942
0.292400000000,0.004261024020
0.292500000000,0.006814634000
0.292600000000,0.005537829010
0.292700000000,-0.007230220893
0.292800000000,0.006814634000
0.292900000000,-0.019998270796
0.293000000000,0.004261024020
0.293100000000,0.022136293884
0.293200000000,-0.003399805922
0.293300000000,0.001707414039
0.293400000000,-0.008507025883
0.293500000000,-0.013614245844
0.293600000000,0.017029073923
0.293700000000,-0.008507025883
0.293800000000,0.017029073923
0.293900000000,0.009368243981
0.294000000000,0.001707414039
0.294100000000,0.004261024020
0.294200000000,0.005537829010
0.294300000000,0.017029073923
0.294400000000,0.002984219030
0.294500000000,0.010645048971
0.294600000000,0.001707414039
0.294700000000,0.022136293884
0.294800000000,-0.003399805922
0.294900000000,0.004261024020
0.295000000000,0.011921853962
0.295100000000,0.017029073923
0.295200000000,-0.002123000932
0.295300000000,0.015752268933
0.295400000000,-0.007230220893
0.295500000000,0.019582683903
0.295600000000,0.006814634000
0.295700000000,-0.008507025883
0.295800000000,-0.011060635864
0.295900000000,-0.019998270796
0.296000000000,-0.000846195941
0.296100000000,0.001707414039
0.296200000000,-0.000846195941
0.296300000000,0.011921853962
0.296400000000,0.009368243981
0.296500000000,0.000430609049
0.296600000000,0.004261024020
0.296700000000,0.005537829010
0.296800000000,0.013198658952
0.296900000000,0.005537829010
0.297000000000,0.011921853962
0.297100000000,0.013198658952
0.297200000000,0.001707414039
0.297300000000,0.011921853962
0.297400000000,0.024689903865
0.297500000000,0.013198658952
0.297600000000,0.041288368738
0.297700000000,0.023413098874
0.297800000000,0.032350733806
0.297900000000,0.037457953768
0.298000000000,0.017029073923
0.298100000000,0.013198658952
0.298200000000,0.011921853962
0.298300000000,0.032350733806
0.298400000000,0.029797123826
0.298500000000,0.025966708855
0.298600000000,0.028520318836
0.298700000000,0.025966708855
0.298800000000,0.009368243981
0.298900000000,0.010645048971
0.299000000000,0.029797123826
0.299100000000,0.028520318836
0.299200000000,0.009368243981
0.299300000000,0.023413098874
0.299400000000,0.009368243981
0.299500000000,0.025966708855
0.299600000000,0.015752268933
0.299700000000,0.017029073923
0.299800000000,0.020859488894
0.299900000000,0.010645048971
0.300000000000,0.024689903865
0.300100000000,0.011921853962
0.300200000000,0.029797123826
0.300300000000,0.013198658952
0.300400000000,-0.000846195941
0.300500000000,0.027243513845
0.300600000000,0.010645048971
0.300700000000,0.009368243981
0.300800000000,-0.003399805922
0.300900000000,-0.018721465805
0.301000000000,0.017029073923
0.301100000000,0.011921853962
0.301200000000,-0.009783830873
0.301300000000,-0.003399805922
0.301400000000,-0.021275075786
0.301500000000,0.008091438991
0.301600000000,-0.008507025883
0.301700000000,0.008091438991
0.301800000000,0.001707414039
0.301900000000,-0.019998270796
0.302000000000,0.004261024020
0.302100000000,0.005537829010
0.302200000000,-0.003399805922
0.302300000000,0.018305878913
0.302400000000,-0.000846195941
0.302500000000,-0.004676610912
0.302600000000,-0.011060635864
0.302700000000,-0.014891050835
0.302800000000,0.005537829010
0.302900000000,-0.014891050835
0.303000000000,0.015752268933
0.303100000000,0.001707414039
0.303200000000,0.020859488894
0.303300000000,0.015752268933
0.303400000000,-0.003399805922
0.303500000000,-0.003399805922
0.303600000000,0.009368243981
0.303700000000,-0.007230220893
0.303800000000,0.009368243981
0.303900000000,0.015752268933
0.304000000000,0.015752268933
0.304100000000,0.010645048971
0.304200000000,0.005537829010
0.304300000000,0.001707414039
0.304400000000,-0.003399805922
0.304500000000,0.000430609049
0.304600000000,0.002984219030
0.304700000000,-0.008507025883
0.304800000000,-0.003399805922
0.304900000000,0.001707414039
0.305000000000,-0.003399805922
0.305100000000,-0.013614245844
0.305200000000,0.001707414039
0.305300000000,-0.003399805922
0.305400000000,-0.034043125689
0.305500000000,-0.019998270796
0.305600000000,-0.013614245844
0.305700000000,-0.021275075786
0.305800000000,-0.007230220893
0.305900000000,-0.016167855825
0.306000000000,-0.021275075786
0.306100000000,0.000430609049
0.306200000000,-0.003399805922
0.306300000000,-0.013614245844
0.306400000000,-0.018721465805
0.306500000000,-0.003399805922
0.306600000000,-0.013614245844
0.306700000000,-0.021275075786
0.306800000000,-0.014891050835
0.306900000000,-0.030212710718
0.307000000000,-0.030212710718
0.307100000000,-0.036596735670
0.307200000000,-0.034043125689
0.307300000000,-0.021275075786
0.307400000000,-0.016167855825
0.307500000000,-0.031489515708
0.307600000000,-0.037873540660
0.307700000000,-0.018721465805
0.307800000000,-0.027659100737
0.307900000000,-0.018721465805
0.308000000000,-0.025105490757
0.308100000000,-0.021275075786
0.308200000000,-0.026382295747
0.308300000000,-0.021275075786
0.308400000000,-0.018721465805
0.308500000000,-0.018721465805
0.308600000000,0.008091438991
0.308700000000,-0.012337440854
0.308800000000,0.010645048971
0.308900000000,-0.002123000932
0.309000000000,-0.011060635864
0.309100000000,0.008091438991
0.309200000000,0.017029073923
0.309300000000,0.013198658952
0.309400000000,0.006814634000
0.309500000000,0.009368243981
0.309600000000,0.002984219030
0.309700000000,-0.014891050835
0.309800000000,0.008091438991
0.309900000000,0.009368243981
0.310000000000,-0.018721465805
0.310100000000,-0.000846195941
0.310200000000,-0.009783830873
0.310300000000,0.022136293884
0.310400000000,0.004261024020
0.310500000000,0.025966708855
0.310600000000,0.002984219030
0.310700000000,0.000430609049
0.310800000000,0.023413098874
0.310900000000,0.019582683903
0.311000000000,-0.004676610912
0.311100000000,0.011921853962
0.311200000000,0.014475463942
0.311300000000,0.014475463942
0.311400000000,0.006814634000
0.311500000000,-0.003399805922
0.311600000000,0.017029073923
0.311700000000,0.001707414039
0.311800000000,-0.000846195941
0.311900000000,0.008091438991
0.312000000000,0.013198658952
0.312100000000,0.013198658952
0.312200000000,-0.009783830873
0.312300000000,0.000430609049
0.312400000000,0.019582683903
0.312500000000,0.028520318836
0.312600000000,0.013198658952
0.312700000000,0.002984219030
0.312800000000,0.011921853962
0.312900000000,-0.003399805922
0.313000000000,-0.002123000932
0.313100000000,0.001707414039
0.313200000000,-0.008507025883
0.313300000000,0.037457953768
0.313400000000,0.029797123826
0.313500000000,0.002984219030
0.313600000000,0.006814634000
0.313700000000,0.002984219030
0.313800000000,0.017029073923
0.313900000000,0.010645048971
0.314000000000,0.014475463942
0.314100000000,0.006814634000
0.314200000000,0.006814634000
0.314300000000,0.025966708855
0.314400000000,0.017029073923
0.314500000000,0.015752268933
0.314600000000,0.015752268933
0.314700000000,0.028520318836
0.314800000000,0.017029073923
0.314900000000,0.011921853962
0.315000000000,0.017029073923
0.315100000000,0.025966708855
0.315200000000,0.020859488894
0.315300000000,0.034904343787
0.315400000000,0.004261024020
0.315500000000,0.014475463942
0.315600000000,0.037457953768
0.315700000000,0.023413098874
0.315800000000,0.029797123826
0.315900000000,0.029797123826
0.316000000000,0.010645048971
0.316100000000,0.022136293884
0.316200000000,0.032350733806
0.316300000000,0.031073928816
0.316400000000,0.006814634000
0.316500000000,0.010645048971
0.316600000000,0.017029073923
0.316700000000,0.017029073923
0.316800000000,0.019582683903
0.316900000000,0.010645048971
0.317000000000,0.008091438991
0.317100000000,0.022136293884
0.317200000000,0.037457953768
0.317300000000,0.027243513845
0.317400000000,-0.000846195941
0.317500000000,0.009368243981
0.317600000000,0.013198658952
0.317700000000,0.008091438991
0.317800000000,0.013198658952
0.317900000000,0.028520318836
0.318000000000,0.031073928816
0.318100000000,0.010645048971
0.318200000000,-0.011060635864
0.318300000000,-0.002123000932
0.318400000000,-0.009783830873
0.318500000000,-0.005953415902
0.318600000000,-0.011060635864
0.318700000000,0.006814634000
0.318800000000,-0.002123000932
0.318900000000,-0.018721465805
0.319000000000,-0.017444660815
0.319100000000,-0.005953415902
0.319200000000,-0.000846195941
0.319300000000,-0.002123000932
0.319400000000,-0.018721465805
0.319500000000,0.000430609049
0.319600000000,-0.007230220893
0.319700000000,-0.003399805922
0.319800000000,-0.007230220893
0.319900000000,-0.014891050835
0.320000000000,-0.007230220893
0.320100000000,0.009368243981
0.320200000000,-0.016167855825
0.320300000000,-0.013614245844
0.320400000000,-0.008507025883
0.320500000000,-0.013614245844
0.320600000000,0.014475463942
0.320700000000,0.002984219030
0.320800000000,0.002984219030
0.320900000000,-0.000846195941
0.321000000000,-0.014891050835
0.321100000000,0.013198658952
0.321200000000,0.001707414039
0.321300000000,0.017029073923
0.321400000000,0.013198658952
0.321500000000,-0.003399805922
0.321600000000,-0.013614245844
0.321700000000,-0.019998270796
0.321800000000,0.017029073923
0.321900000000,-0.004676610912
0.322000000000,-0.008507025883
0.322100000000,0.001707414039
0.322200000000,-0.000846195941
0.322300000000,-0.004676610912
0.322400000000,-0.007230220893
0.322500000000,-0.021275075786
0.322600000000,-0.009783830873
0.322700000000,-0.017444660815
0.322800000000,0.001707414039
0.322900000000,-0.013614245844
0.323000000000,-0.025105490757
0.323100000000,-0.016167855825
0.323200000000,-0.011060635864
0.323300000000,-0.018721465805
0.323400000000,-0.000846195941
0.323500000000,0.001707414039
0.323600000000,-0.018721465805
0.323700000000,-0.012337440854
0.323800000000,-0.009783830873
0.323900000000,-0.003399805922
0.324000000000,-0.014891050835
0.324100000000,-0.018721465805
0.324200000000,-0.007230220893
0.324300000000,-0.008507025883
0.324400000000,-0.008507025883
0.324500000000,-0.032766320699
0.324600000000,-0.014891050835
0.324700000000,-0.030212710718
0.324800000000,-0.021275075786
0.324900000000,-0.034043125689
0.325000000000,-0.004676610912
0.325100000000,-0.025105490757
0.325200000000,-0.039150345650
0.325300000000,-0.008507025883
0.325400000000,0.002984219030
0.325500000000,-0.018721465805
0.325600000000,-0.019998270796
0.325700000000,-0.021275075786
0.325800000000,-0.021275075786
0.325900000000,0.001707414039
0.326000000000,-0.000846195941
0.326100000000,-0.018721465805
0.326200000000,-0.014891050835
0.326300000000,-0.008507025883
0.326400000000,-0.014891050835
0.326500000000,-0.004676610912
0.326600000000,-0.028935905728
0.326700000000,-0.035319930679
0.326800000000,-0.036596735670
0.326900000000,0.002984219030
0.327000000000,-0.003399805922
0.327100000000,-0.003399805922
0.327200000000,0.011921853962
0.327300000000,0.017029073923
0.327400000000,0.011921853962
0.327500000000,0.006814634000
0.327600000000,0.000430609049
0.327700000000,0.001707414039
0.327800000000,0.019582683903
0.327900000000,0.037457953768
0.328000000000,0.010645048971
0.328100000000,0.011921853962
0.328200000000,0.009368243981
0.328300000000,-0.009783830873
0.328400000000,0.027243513845
0.328500000000,0.015752268933
0.328600000000,0.010645048971
0.328700000000,0.008091438991
0.328800000000,0.001707414039
0.328900000000,0.020859488894
0.329000000000,0.022136293884
0.329100000000,0.017029073923
0.329200000000,0.010645048971
0.329300000000,0.011921853962
0.329400000000,0.032350733806
0.329500000000,0.014475463942
0.329600000000,0.005537829010
0.329700000000,0.002984219030
0.329800000000,0.010645048971
0.329900000000,0.029797123826
0.330000000000,0.022136293884
0.330100000000,0.013198658952
0.330200000000,0.013198658952
0.330300000000,0.036181148777
0.330400000000,0.029797123826
0.330500000000,0.023413098874
0.330600000000,0.018305878913
0.330700000000,0.018305878913
0.330800000000,-0.000846195941
0.330900000000,0.011921853962
0.331000000000,0.005537829010
0.331100000000,0.013198658952
0.331200000000,0.006814634000
0.331300000000,0.017029073923
0.331400000000,0.017029073923
0.331500000000,0.010645048971
0.331600000000,0.019582683903
0.331700000000,-0.003399805922
0.331800000000,0.001707414039
0.331900000000,0.028520318836
0.332000000000,0.008091438991
0.332100000000,0.013198658952
0.332200000000,0.005537829010
0.332300000000,0.025966708855
0.332400000000,0.018305878913
0.332500000000,0.002984219030
0.332600000000,0.011921853962
0.332700000000,0.029797123826
0.332800000000,0.018305878913
0.332900000000,0.034904343787
0.333000000000,0.022136293884
0.333100000000,0.031073928816
0.333200000000,0.009368243981
0.333300000000,0.023413098874
0.333400000000,0.041288368738
0.333500000000,0.032350733806
0.333600000000,0.020859488894
0.333700000000,0.013198658952
0.333800000000,0.005537829010
0.333900000000,-0.000846195941
0.334000000000,0.019582683903
0.334100000000,0.027243513845
0.334200000000,0.006814634000
0.334300000000,0.023413098874
0.334400000000,0.010645048971
0.334500000000,0.011921853962
0.334600000000,0.001707414039
0.334700000000,0.017029073923
0.334800000000,-0.004676610912
0.334900000000,0.011921853962
0.335000000000,0.010645048971
0.335100000000,-0.007230220893
0.335200000000,-0.014891050835
0.335300000000,-0.003399805922
0.335400000000,0.006814634000
0.335500000000,-0.009783830873
0.335600000000,0.005537829010
0.335700000000,0.011921853962
0.335800000000,-0.018721465805
0.335900000000,-0.022551880776
0.336000000000,-0.008507025883
0.336100000000,-0.002123000932
0.336200000000,-0.009783830873
0.336300000000,0.008091438991
0.336400000000,0.008091438991
0.336500000000,0.032350733806
0.336600000000,0.015752268933
0.336700000000,-0.000846195941
0.336800000000,-0.003399805922
0.336900000000,0.002984219030
0.337000000000,0.002984219030
0.337100000000,-0.004676610912
0.337200000000,0.001707414039
0.337300000000,0.001707414039
0.337400000000,0.002984219030
0.337500000000,-0.002123000932
0.337600000000,-0.004676610912
0.337700000000,-0.009783830873
0.337800000000,-0.005953415902
0.337900000000,0.018305878913
0.338000000000,-0.013614245844
0.338100000000,-0.008507025883
0.338200000000,-0.003399805922
0.338300000000,-0.008507025883
0.338400000000,-0.018721465805
0.338500000000,-0.016167855825
0.338600000000,-0.018721465805
0.338700000000,-0.022551880776
0.338800000000,-0.031489515708
0.338900000000,-0.021275075786
0.339000000000,-0.025105490757
0.339100000000,-0.023828685767
0.339200000000,-0.011060635864
0.339300000000,-0.014891050835
0.339400000000,-0.012337440854
0.339500000000,-0.018721465805
0.339600000000,-0.036596735670
0.339700000000,-0.021275075786
0.339800000000,-0.023828685767
0.339900000000,-0.023828685767
0.340000000000,-0.016167855825
0.340100000000,-0.011060635864
0.340200000000,-0.021275075786
0.340300000000,-0.007230220893
0.340400000000,-0.007230220893
0.340500000000,-0.002123000932
0.340600000000,-0.014891050835
0.340700000000,0.005537829010
0.340800000000,-0.018721465805
0.340900000000,-0.030212710718
0.341000000000,-0.000846195941
0.341100000000,-0.011060635864
0.341200000000,-0.018721465805
0.341300000000,-0.018721465805
0.341400000000,-0.000846195941
0.341500000000,-0.007230220893
0.341600000000,-0.025105490757
0.341700000000,-0.011060635864
0.341800000000,-0.013614245844
0.341900000000,-0.019998270796
0.342000000000,0.010645048971
0.342100000000,-0.014891050835
0.342200000000,0.004261024020
0.342300000000,-0.005953415902
0.342400000000,0.000430609049
0.342500000000,-0.008507025883
0.342600000000,-0.012337440854
0.342700000000,-0.002123000932
0.342800000000,-0.030212710718
0.342900000000,-0.008507025883
0.343000000000,-0.007230220893
0.343100000000,-0.014891050835
0.343200000000,-0.005953415902
0.343300000000,-0.034043125689
0.343400000000,-0.009783830873
0.343500000000,-0.018721465805
0.343600000000,-0.018721465805
0.343700000000,-0.008507025883
0.343800000000,-0.004676610912
0.343900000000,-0.011060635864
0.344000000000,-0.003399805922
0.344100000000,0.024689903865
0.344200000000,0.023413098874
0.344300000000,0.000430609049
0.344400000000,0.011921853962
0.344500000000,0.005537829010
0.344600000000,0.005537829010
0.344700000000,0.006814634000
0.344800000000,0.011921853962
0.344900000000,0.010645048971
0.345000000000,0.017029073923
0.345100000000,0.018305878913
0.345200000000,0.001707414039
0.345300000000,0.000430609049
0.345400000000,0.001707414039
0.345500000000,0.002984219030
0.345600000000,-0.007230220893
0.345700000000,0.010645048971
0.345800000000,0.005537829010
0.345900000000,0.008091438991
0.346000000000,0.013198658952
0.346100000000,0.020859488894
0.346200000000,0.017029073923
0.346300000000,0.015752268933
0.346400000000,-0.000846195941
0.346500000000,0.006814634000
0.346600000000,0.009368243981
0.346700000000,0.025966708855
0.346800000000,-0.000846195941
0.346900000000,-0.003399805922
0.347000000000,0.002984219030
0.347100000000,0.013198658952
0.347200000000,0.011921853962
0.347300000000,-0.003399805922
0.347400000000,0.002984219030
0.347500000000,0.017029073923
0.347600000000,0.019582683903
0.347700000000,0.015752268933
0.347800000000,0.022136293884
0.347900000000,0.027243513845
0.348000000000,0.038734758758
0.348100000000,0.031073928816
0.348200000000,0.027243513845
0.348300000000,0.024689903865
0.348400000000,0.022136293884
0.348500000000,0.022136293884
0.348600000000,0.018305878913
0.348700000000,0.025966708855
0.348800000000,0.006814634000
0.348900000000,0.017029073923
0.349000000000,0.014475463942
0.349100000000,0.014475463942
0.349200000000,0.019582683903
0.349300000000,0.019582683903
0.349400000000,0.009368243981
0.349500000000,0.004261024020
0.349600000000,0.001707414039
0.349700000000,0.011921853962
0.349800000000,0.029797123826
0.349900000000,0.025966708855
0.350000000000,0.010645048971
0.350100000000,0.020859488894
0.350200000000,0.018305878913
0.350300000000,-0.004676610912
0.350400000000,-0.000846195941
0.350500000000,-0.011060635864
0.350600000000,-0.008507025883
0.350700000000,-0.008507025883
0.350800000000,0.000430609049
0.350900000000,0.006814634000
0.351000000000,-0.011060635864
0.351100000000,0.008091438991
0.351200000000,0.005537829010
0.351300000000,-0.003399805922
0.351400000000,0.019582683903
0.351500000000,0.001707414039
0.351600000000,0.009368243981
0.351700000000,0.015752268933
0.351800000000,0.017029073923
0.351900000000,0.001707414039
0.352000000000,0.010645048971
0.352100000000,0.013198658952
0.352200000000,0.024689903865
0.352300000000,0.011921853962
0.352400000000,-0.003399805922
0.352500000000,-0.021275075786
0.352600000000,-0.018721465805
0.352700000000,0.000430609049
0.352800000000,0.004261024020
0.352900000000,0.015752268933
0.353000000000,0.002984219030
0.353100000000,-0.003399805922
0.353200000000,0.002984219030
0.353300000000,0.011921853962
0.353400000000,-0.000846195941
0.353500000000,0.002984219030
0.353600000000,-0.011060635864
0.353700000000,0.006814634000
0.353800000000,0.018305878913
0.353900000000,-0.011060635864
0.354000000000,-0.012337440854
0.354100000000,-0.017444660815
0.354200000000,0.001707414039
0.354300000000,-0.012337440854
0.354400000000,-0.011060635864
0.354500000000,-0.026382295747
0.354600000000,-0.041703955631
0.354700000000,-0.018721465805
0.354800000000,-0.007230220893
0.354900000000,-0.013614245844
0.355000000000,-0.018721465805
0.355100000000,-0.011060635864
0.355200000000,-0.011060635864
0.355300000000,-0.008507025883
0.355400000000,0.002984219030
0.355500000000,-0.009783830873
0.355600000000,-0.018721465805
0.355700000000,0.005537829010
0.355800000000,0.004261024020
0.355900000000,-0.003399805922
0.356000000000,-0.023828685767
0.356100000000,-0.014891050835
0.356200000000,-0.003399805922
0.356300000000,-0.009783830873
0.356400000000,0.006814634000
0.356500000000,-0.030212710718
0.356600000000,-0.014891050835
0.356700000000,-0.008507025883
0.356800000000,-0.016167855825
0.356900000000,-0.014891050835
0.357000000000,-0.013614245844
0.357100000000,-0.013614245844
0.357200000000,-0.004676610912
0.357300000000,0.009368243981
0.357400000000,-0.007230220893
0.357500000000,-0.017444660815
0.357600000000,-0.023828685767
0.357700000000,0.001707414039
0.357800000000,-0.000846195941
0.357900000000,-0.009783830873
0.358000000000,-0.019998270796
0.358100000000,-0.049364785573
0.358200000000,-0.034043125689
0.358300000000,-0.022551880776
0.358400000000,-0.017444660815
0.358500000000,-0.021275075786
0.358600000000,-0.026382295747
0.358700000000,-0.018721465805
0.358800000000,-0.019998270796
0.358900000000,-0.004676610912
0.359000000000,-0.018721465805
0.359100000000,-0.025105490757
0.359200000000,0.001707414039
0.359300000000,0.009368243981
0.359400000000,0.002984219030
0.359500000000,0.000430609049
0.359600000000,0.005537829010
0.359700000000,0.005537829010
0.359800000000,0.001707414039
0.359900000000,0.005537829010
0.360000000000,0.002984219030
0.360100000000,-0.000846195941
0.360200000000,0.033627538797
0.360300000000,0.005537829010
0.360400000000,0.001707414039
0.360500000000,-0.014891050835
0.360600000000,-0.018721465805
0.360700000000,-0.003399805922
0.360800000000,0.005537829010
0.360900000000,0.020859488894
0.361000000000,0.006814634000
0.361100000000,-0.011060635864
0.361200000000,-0.008507025883
0.361300000000,-0.007230220893
0.361400000000,0.015752268933
0.361500000000,0.011921853962
0.361600000000,0.011921853962
0.361700000000,0.011921853962
0.361800000000,0.009368243981
0.361900000000,0.010645048971
0.362000000000,0.013198658952
0.362100000000,0.005537829010
0.362200000000,0.014475463942
0.362300000000,0.020859488894
0.362400000000,0.000430609049
0.362500000000,-0.004676610912
0.362600000000,0.004261024020
0.362700000000,0.022136293884
0.362800000000,-0.003399805922
0.362900000000,0.004261024020
0.363000000000,0.010645048971
0.363100000000,0.008091438991
0.363200000000,0.010645048971
0.363300000000,0.010645048971
0.363400000000,0.018305878913
0.363500000000,0.006814634000
0.363600000000,0.001707414039
0.363700000000,0.002984219030
0.363800000000,0.015752268933
0.363900000000,0.019582683903
0.364000000000,0.023413098874
0.364100000000,0.009368243981
0.364200000000,0.033627538797
0.364300000000,0.037457953768
0.364400000000,0.046395588700
0.364500000000,0.027243513845
0.364600000000,0.002984219030
0.364700000000,0.017029073923
0.364800000000,0.029797123826
0.364900000000,0.031073928816
0.365000000000,0.011921853962
0.365100000000,0.004261024020
0.365200000000,0.020859488894
0.365300000000,0.041288368738
0.365400000000,0.010645048971
0.365500000000,0.017029073923
0.365600000000,0.001707414039
0.365700000000,-0.003399805922
0.365800000000,0.029797123826
0.365900000000,0.034904343787
0.366000000000,0.023413098874
0.366100000000,0.019582683903
0.366200000000,0.017029073923
0.366300000000,0.005537829010
0.366400000000,0.015752268933
0.366500000000,0.024689903865
0.366600000000,0.024689903865
0.366700000000,0.040011563748
0.366800000000,0.024689903865
0.366900000000,0.027243513845
0.367000000000,0.009368243981
0.367100000000,0.027243513845
0.367200000000,0.002984219030
0.367300000000,0.017029073923
0.367400000000,-0.004676610912
0.367500000000,0.006814634000
0.367600000000,-0.008507025883
0.367700000000,-0.004676610912
0.367800000000,0.001707414039
0.367900000000,0.005537829010
0.368000000000,-0.008507025883
0.368100000000,-0.000846195941
0.368200000000,-0.011060635864
0.368300000000,-0.000846195941
0.368400000000,0.001707414039
0.368500000000,-0.002123000932
0.368600000000,0.006814634000
0.368700000000,0.002984219030
0.368800000000,-0.008507025883
0.368900000000,-0.009783830873
0.369000000000,-0.003399805922
0.369100000000,-0.023828685767
0.369200000000,-0.004676610912
0.369300000000,-0.003399805922
0.369400000000,-0.014891050835
0.369500000000,0.000430609049
0.369600000000,0.000430609049
0.369700000000,-0.009783830873
0.369800000000,0.031073928816
0.369900000000,0.006814634000
0.370000000000,-0.003399805922
0.370100000000,0.014475463942
0.370200000000,0.010645048971
0.370300000000,0.001707414039
0.370400000000,-0.000846195941
0.370500000000,0.002984219030
0.370600000000,-0.003399805922
0.370700000000,0.013198658952
0.370800000000,0.017029073923
0.370900000000,0.010645048971
0.371000000000,0.001707414039
0.371100000000,-0.008507025883
0.371200000000,-0.018721465805
0.371300000000,-0.004676610912
0.371400000000,0.013198658952
0.371500000000,0.031073928816
0.371600000000,-0.007230220893
0.371700000000,-0.030212710718
0.371800000000,-0.013614245844
0.371900000000,-0.014891050835
0.372000000000,-0.022551880776
0.372100000000,-0.013614245844
0.372200000000,-0.018721465805
0.372300000000,-0.008507025883
0.372400000000,0.005537829010
0.372500000000,-0.008507025883
0.372600000000,-0.027659100737
0.372700000000,-0.023828685767
0.372800000000,-0.028935905728
0.372900000000,-0.028935905728
0.373000000000,-0.016167855825
0.373100000000,-0.008507025883
0.373200000000,-0.025105490757
0.373300000000,-0.023828685767
0.373400000000,-0.018721465805
0.373500000000,-0.027659100737
0.373600000000,-0.019998270796
0.373700000000,-0.034043125689
0.373800000000,-0.008507025883
0.373900000000,-0.017444660815
0.374000000000,-0.007230220893
0.374100000000,-0.018721465805
0.374200000000,-0.023828685767
0.374300000000,-0.023828685767
0.374400000000,-0.030212710718
0.374500000000,-0.011060635864
0.374600000000,-0.004676610912
0.374700000000,-0.027659100737
0.374800000000,-0.026382295747
0.374900000000,-0.030212710718
0.375000000000,-0.012337440854
0.375100000000,-0.017444660815
0.375200000000,-0.022551880776
0.375300000000,-0.005953415902
0.375400000000,-0.017444660815
0.375500000000,-0.009783830873
0.375600000000,-0.017444660815
0.375700000000,-0.008507025883
0.375800000000,-0.009783830873
0.375900000000,-0.003399805922
0.376000000000,0.022136293884
0.376100000000,0.010645048971
0.376200000000,-0.005953415902
0.376300000000,0.005537829010
0.376400000000,-0.017444660815
0.376500000000,0.017029073923
0.376600000000,-0.008507025883
0.376700000000,-0.008507025883
0.376800000000,-0.002123000932
0.376900000000,0.017029073923
0.377000000000,0.028520318836
0.377100000000,0.017029073923
0.377200000000,0.001707414039
0.377300000000,0.004261024020
0.377400000000,0.018305878913
0.377500000000,0.013198658952
0.377600000000,-0.003399805922
0.377700000000,0.010645048971
0.377800000000,0.006814634000
0.377900000000,0.005537829010
0.378000000000,0.010645048971
0.378100000000,0.011921853962
0.378200000000,0.005537829010
0.378300000000,0.002984219030
0.378400000000,0.006814634000
0.378500000000,0.004261024020
0.378600000000,0.004261024020
0.378700000000,0.005537829010
0.378800000000,0.010645048971
0.378900000000,0.000430609049
0.379000000000,0.028520318836
0.379100000000,0.019582683903
0.379200000000,-0.012337440854
0.379300000000,-0.003399805922
0.379400000000,0.010645048971
0.379500000000,0.005537829010
0.379600000000,0.010645048971
0.379700000000,0.005537829010
0.379800000000,-0.008507025883
0.379900000000,0.013198658952
0.380000000000,0.005537829010
0.380100000000,-0.000846195941
0.380200000000,0.020859488894
0.380300000000,0.018305878913
0.380400000000,0.010645048971
0.380500000000,0.001707414039
0.380600000000,0.006814634000
0.380700000000,0.020859488894
0.380800000000,0.009368243981
0.380900000000,0.023413098874
0.381000000000,0.013198658952
0.381100000000,0.017029073923
0.381200000000,-0.002123000932
0.381300000000,0.000430609049
0.381400000000,0.011921853962
0.381500000000,0.020859488894
0.381600000000,0.020859488894
0.381700000000,0.023413098874
0.381800000000,0.011921853962
0.381900000000,0.018305878913
0.382000000000,0.010645048971
0.382100000000,0.037457953768
0.382200000000,0.011921853962
0.382300000000,0.015752268933
0.382400000000,0.034904343787
0.382500000000,0.042565173729
0.382600000000,0.018305878913
0.382700000000,0.027243513845
0.382800000000,0.022136293884
0.382900000000,0.011921853962
0.383000000000,0.004261024020
0.383100000000,0.036181148777
0.383200000000,0.029797123826
0.383300000000,0.023413098874
0.383400000000,0.011921853962
0.383500000000,0.020859488894
0.383600000000,0.014475463942
0.383700000000,0.004261024020
0.383800000000,0.017029073923
0.383900000000,0.018305878913
0.384000000000,0.000430609049
0.384100000000,0.020859488894
0.384200000000,0.001707414039
0.384300000000,0.023413098874
0.384400000000,0.025966708855
0.384500000000,0.014475463942
0.384600000000,0.023413098874
0.384700000000,0.004261024020
0.384800000000,-0.007230220893
0.384900000000,0.015752268933
0.385000000000,0.005537829010
0.385100000000,0.004261024020
0.385200000000,-0.004676610912
0.385300000000,-0.018721465805
0.385400000000,-0.009783830873
0.385500000000,0.005537829010
0.385600000000,0.002984219030
0.385700000000,-0.022551880776
0.385800000000,-0.030212710718
0.385900000000,0.010645048971
0.386000000000,0.010645048971
0.386100000000,-0.011060635864
0.386200000000,-0.014891050835
0.386300000000,-0.018721465805
0.386400000000,-0.011060635864
0.386500000000,0.006814634000
0.386600000000,-0.003399805922
0.386700000000,-0.023828685767
0.386800000000,-0.018721465805
0.386900000000,-0.003399805922
0.387000000000,0.005537829010
0.387100000000,-0.005953415902
0.387200000000,-0.004676610912
0.387300000000,-0.022551880776
0.387400000000,-0.008507025883
0.387500000000,0.005537829010
0.387600000000,0.006814634000
0.387700000000,-0.008507025883
0.387800000000,-0.008507025883
0.387900000000,-0.008507025883
0.388000000000,-0.008507025883
0.388100000000,0.000430609049
0.388200000000,0.019582683903
0.388300000000,-0.008507025883
0.388400000000,0.005537829010
0.388500000000,-0.008507025883
0.388600000000,-0.003399805922
0.388700000000,-0.000846195941
0.388800000000,0.009368243981
0.388900000000,0.009368243981
0.389000000000,0.005537829010
0.389100000000,-0.004676610912
0.389200000000,-0.011060635864
0.389300000000,-0.012337440854
0.389400000000,-0.014891050835
0.389500000000,-0.021275075786
0.389600000000,0.009368243981
0.389700000000,-0.008507025883
0.389800000000,-0.018721465805
0.389900000000,-0.014891050835
0.390000000000,0.019582683903
0.390100000000,-0.019998270796
0.390200000000,-0.007230220893
0.390300000000,-0.028935905728
0.390400000000,0.001707414039
0.390500000000,-0.018721465805
0.390600000000,0.009368243981
0.390700000000,-0.036596735670
0.390800000000,-0.028935905728
0.390900000000,-0.004676610912
0.391000000000,-0.004676610912
0.391100000000,-0.018721465805
0.391200000000,-0.013614245844
0.391300000000,-0.017444660815
0.391400000000,-0.027659100737
0.391500000000,-0.021275075786
0.391600000000,-0.000846195941
0.391700000000,-0.000846195941
0.391800000000,-0.028935905728
0.391900000000,-0.018721465805
0.392000000000,-0.019998270796
0.392100000000,-0.018721465805
0.392200000000,-0.022551880776
0.392300000000,-0.027659100737
0.392400000000,-0.018721465805
0.392500000000,0.002984219030
0.392600000000,-0.025105490757
0.392700000000,-0.011060635864
0.392800000000,-0.023828685767
0.392900000000,-0.023828685767
0.393000000000,-0.008507025883
0.393100000000,-0.008507025883
0.393200000000,0.006814634000
0.393300000000,-0.027659100737
0.393400000000,0.001707414039
0.393500000000,-0.012337440854
0.393600000000,-0.004676610912
0.393700000000,0.018305878913
0.393800000000,0.033627538797
0.393900000000,0.006814634000
0.394000000000,0.002984219030
